"","SiteName","SampleName","SampleDate","RiffleDepth"
"1","08ISS3877","08ISS3877_17",2017-07-19 10:15:00,9.40625
"2","09MIL0390","09MIL0390_17",2017-07-20 02:00:00,3.65625
"3","08EAS2540","08EAS2540_17",2017-07-20 09:15:00,2.0625
"4","08ISS3962","08ISS3962_17",2017-07-20 09:15:00,8.25
"5","09MIL0340","09MIL0340_17",2017-07-20 11:30:00,4.4375
"6","08ISS4748","08ISS4748_17",2017-07-20 13:15:00,8.9375
"7","08LAK3121","08LAK3121_17",2017-07-20 13:29:59,3.075
"8","08BEA3747","08BEA3747_17",2017-07-24 09:44:59,6.5625
"9","08BEA3571","08BEA3571_17",2017-07-24 12:15:00,4.875
"10","08WES0622","08WES0622_17",2017-07-25 08:30:00,1.75
"11","08WES0905","08WES0905_17",2017-07-25 10:35:00,2.8125
"12","08WES0903","08WES0903_17",2017-07-25 13:29:59,4.4375
"13","09BLA0768","09BLA0768_17",2017-07-26 08:45:00,5.0625
"14","09NEW2102","09NEW2102_17",2017-07-26 08:59:59,3.6875
"15","08EVA3637","08EVA3637_17",2017-07-26 10:29:59,1.9375
"16","09COV1756","09COV1756_17",2017-07-26 11:59:59,4.625
"17","09BLA0771","09BLA0771_17",2017-07-26 13:00:00,2.09375
"18","09COV1862","09COV1862_17",2017-07-26 14:00:00,2.5
"19","08SAM2855","08SAM2855_17",2017-07-27 09:30:00,1.90625
"20","08BEA3474","08BEA3474_17",2017-07-27 10:29:59,7.59375
"21","08WES1178","08WES1178_17",2017-07-27 11:00:00,1.8125
"22","08SAM3047","08SAM3047_17",2017-07-27 11:59:59,1.625
"23","08WES0629","08WES0629_17",2017-07-27 13:15:00,3.5
"24","09JEN1357","09JEN1357_17",2017-07-30 23:59:59,7.1875
"25","08CED5046","08CED5046_17",2017-07-31 09:15:00,5.90625
"26","08LIT2585","08LIT2585_17",2017-07-31 10:45:00,4.5625
"27","09JEN1318","09JEN1318_17",2017-07-31 11:00:00,8.21875
"28","08CED5032","08CED5032_17",2017-07-31 11:45:00,4.9375
"29","08CED4975","08CED4975_17",2017-07-31 14:00:00,2.0625
"30","08LIT2682","08LIT2682_17",2017-07-31 14:30:00,4.1775
"31","08LAK2827","08LAK2827_17",2017-08-01 08:30:00,2.828125
"32","08LIT2781","08LIT2781_17",2017-08-01 10:15:00,4.875
"33","08LAK3627","08LAK3627_17",2017-08-01 11:00:00,5
"34","09SOO1209","09SOO1209_17",2017-08-01 11:00:00,5.875
"35","08LIT2692","08LIT2692_17",2017-08-01 13:00:00,4.0325
"36","08EAS1964","08EAS1964_17",2017-08-01 13:45:00,4.34375
"37","09SOO1130","09SOO1130_17",2017-08-02 00:15:00,8.875
"38","08ISS4573","08ISS4573_17",2017-08-02 08:59:59,3.09375
"39","09SOO1283","09SOO1283_17",2017-08-02 09:15:00,5.90625
"40","09SOO1134","09SOO1134_17",2017-08-02 09:30:00,6.5
"41","09SOO1022","09SOO1022_17",2017-08-02 11:14:59,3.4375
"42","08ISS4884","08ISS4884_17",2017-08-02 13:00:00,4.8125
"43","08EAS2631","08EAS2631_17",2017-08-03 08:45:00,4.46875
"44","VashShing","VashShing_17",2017-08-03 08:59:59,3
"45","09COV1864","09COV1864_17",2017-08-03 09:15:00,2.5
"46","08EAS2058","08EAS2058_17",2017-08-03 11:00:00,6
"47","28A","28A_17",2017-08-03 11:00:00,3.8125
"48","09COV1165","09COV1165_17",2017-08-03 12:30:00,7.4375
"49","07RAG002867","07RAG002867_17",2017-08-06 23:59:59,2.65625
"50","07RAG043443","07RAG043443_17",2017-08-06 23:59:59,7.15625
"51","07RAG004615","07RAG004615_17",2017-08-07 08:59:59,8.28125
"52","09MID1958","09MID1958_17",2017-08-07 13:29:59,5.84375
"53","07PAT001415","07PAT001415_17",2017-08-07 13:45:00,5.71875
"54","07HAR070087","07HAR070087_17",2017-08-08 10:29:59,3
"55","08NOR1370","08NOR1370_17",2017-08-08 11:30:00,5.0625
"56","09SOO0943","09SOO0943_17",2017-08-08 11:59:59,8.03125
"57","08NOR1362","08NOR1362_17",2017-08-08 12:44:59,3.9375
"58","07TKL072439","07TKL072439_17",2017-08-09 09:15:00,1.46875
"59","08ISS4730","08ISS4730_17",2017-08-09 10:00:00,5.109375
"60","08CED4192","08CED4192_17",2017-08-10 09:44:59,5.40625
"61","08NOR1750","08NOR1750_17",2017-08-10 10:45:00,3.78125
"62","08CED2898","08CED2898_17",2017-08-10 12:15:00,1.96875
"63","08NOR1756","08NOR1756_17",2017-08-10 12:44:59,1.5625
"64","07STL080295","07STL080295_17",2017-08-10 14:00:00,5.875
"65","08CED2518","08CED2518_17",2017-08-10 14:00:00,5
"66","08EAS2546","08EAS2546_17",2017-08-14 10:00:00,3.3125
"67","07LMS026663","07LMS026663_17",2017-08-14 10:15:00,8.5625
"68","08EAS2272","08EAS2272_17",2017-08-14 12:15:00,5.0625
"69","07TKL047047","07TKL047047_17",2017-08-14 13:15:00,6.03125
"70","07LMS033235","07LMS033235_17",2017-08-14 14:14:59,3.96875
"71","07PAT231079","07PAT231079_17",2017-08-15 08:59:59,2.15625
"72","08ISS3958","08ISS3958_17",2017-08-15 09:44:59,3
"73","08LAK3699","08LAK3699_17",2017-08-15 11:59:59,2.21875
"74","08EAS2446","08EAS2446_17",2017-08-15 12:44:59,3.1875
"75","08LAK3879","08LAK3879_17",2017-08-15 13:45:00,3.875
"76","09DEE2163","09DEE2163_17",2017-08-16 09:30:00,4.6875
"77","09MID2426","09MID2426_17",2017-08-16 09:30:00,2.53125
"78","09MID1817","09MID1817_17",2017-08-16 11:59:59,3.375
"79","09DEE2294","09DEE2294_17",2017-08-16 12:44:59,5.03125
"80","07LNT130827","07LNT130827_17",2017-08-16 13:00:00,9.21875
"81","09LOW0751","09LOW0751_17",2017-08-17 01:15:00,3.6875
"82","07HAR025863","07HAR025863_17",2017-08-17 09:30:00,4.3125
"83","09COV1418","09COV1418_17",2017-08-17 10:15:00,4.03125
"84","09DEE2211","09DEE2211_17",2017-08-18 09:30:00,3.625
"85","08NOR2306","08NOR2306_17",2017-08-20 23:59:59,5.46875
"86","08NOR2115","08NOR2115_17",2017-08-21 08:14:59,7.1875
"87","08EAS1536","08EAS1536_17",2017-08-21 08:59:59,2.1875
"88","08EAS2191","08EAS2191_17",2017-08-21 11:45:00,2.5
"89","08BEA3321","08BEA3321_17",2017-08-21 13:29:59,6.5
"90","08SAM0000","08SAM0000_17",2017-08-21 13:45:00,3.96875
"91","07RAG022147","07RAG022147_17",2017-08-22 08:59:59,1.53125
"92","07CHR070059","07CHR070059_17",2017-08-22 09:30:00,4.625
"93","08BEA3826","08BEA3826_17",2017-08-22 09:30:00,1.5625
"94","07RAG042787","07RAG042787_17",2017-08-22 11:14:59,7.03125
"95","07CHR045515","07CHR045515_17",2017-08-22 11:59:59,5.78125
"96","08BEA3914","08BEA3914_17",2017-08-22 13:00:00,1.96875
"97","07STL184007","07STL184007_17",2017-08-23 08:59:59,4.5625
"98","09BLA0675","09BLA0675_17",2017-08-23 09:15:00,4.40625
"99","Evans Creek Trib #0108","Evans Creek Trib #0108_17",2017-08-23 09:30:00,4.8125
"100","08BEA3312","08BEA3312_17",2017-08-23 10:29:59,2
"101","07SFS011059","07SFS011059_17",2017-08-23 11:14:59,8.53125
"102","09BLA0716","09BLA0716_17",2017-08-23 11:14:59,4.875
"103","08EVA3813","08EVA3813_17",2017-08-23 11:45:00,3.4375
"104","08SAM3045","08SAM3045_17",2017-08-23 13:00:00,4.0625
"105","07SFS041891","07SFS041891_17",2017-08-23 13:29:59,9.6875
"106","09BLA0756","09BLA0756_17",2017-08-23 13:45:00,2.125
"107","08SAM2862","08SAM2862_17",2017-08-24 09:15:00,3.28125
"108","07SFS066611","07SFS066611_17",2017-08-24 10:15:00,4.625
"109","09MID1537","09MID1537_17",2017-08-24 11:30:00,2.125
"110","07SFS011475","07SFS011475_17",2017-08-24 11:45:00,5.9375
"111","08SAM2865","08SAM2865_17",2017-08-24 11:59:59,4.0625
"112","09MID1374","09MID1374_17",2017-08-24 13:29:59,3.5
"113","07RAG018227","07RAG018227_17",2017-08-24 14:30:00,4.28125
"114","MA01","MA01_17",2017-08-28 00:44:59,2.99
"115","08CED2433","08CED2433_17",2017-08-28 08:30:00,4.3125
"116","09LOW0753","09LOW0753_17",2017-08-28 09:30:00,2.125
"117","08LAK3540","08LAK3540_17",2017-08-28 11:45:00,2.84375
"118","09LOW0325","09LOW0325_17",2017-08-28 12:15:00,1.78125
"119","09BLA0817","09BLA0817_17",2017-08-28 14:30:00,2
"120","09BLA0772","09BLA0772_17",2017-08-29 09:15:00,2.28125
"121","09DEE2208","09DEE2208_17",2017-08-29 09:15:00,5.875
"122","TAMA_MOUTH","TAMA_MOUTH_17",2017-08-29 11:30:00,3.5
"123","09NEW2076","09NEW2076_17",2017-08-29 11:59:59,3.40625
"124","NFCC","NFCC_17",2017-08-30 08:59:59,5
"125","BSE_21_GolfCrs","BSE_21_GolfCrs_17",2017-08-30 09:15:00,3.78125
"126","BSE_1_MudMtnRd","BSE_1_MudMtnRd_17",2017-08-30 11:14:59,3.90625
"127","TNMA7673","TNMA7673_17",2017-08-30 12:15:00,3.83333333333333
"128","TSMA6612","TSMA6612_17",2017-08-30 13:29:59,5.75
"129","BSE_8_268hAveSE","BSE_8_268hAveSE_17",2017-08-30 13:45:00,6.5625
"130","09DUW0225","09DUW0225_17",2017-08-31 13:00:00,2.1875
"131","09DUW0277","09DUW0277_17",2017-08-31 14:30:00,4
"132","07LMS093027","07LMS093027_17",2017-09-05 09:15:00,8.5
"133","PI01","PI01_17",2017-09-05 09:15:00,5.25
"134","PIMA6462","PIMA6462_17",2017-09-05 10:29:59,5.33333333333333
"135","09DUW0091","09DUW0091_17",2017-09-05 14:14:59,1.8125
"136","KNKT-D","KNKT-D_17",2017-09-07 01:29:59,5
"137","09NEW1657","09NEW1657_17",2017-09-07 09:30:00,7.22222222222222
"138","08EVA3640","08EVA3640_17",2017-09-07 10:00:00,4.3125
"139","08EVA3642","08EVA3642_17",2017-09-07 11:59:59,1.9375
"140","VENE","VENE_17",2017-09-07 14:14:59,3.5
"141","KNKT-U","KNKT-U_17",2017-09-07 14:59:59,6.66666666666667
"142","PIVE1895","PIVE1895_17",2017-09-07 15:30:00,4.25
"143","SFCT","SFCT_17",2017-09-08 10:29:59,4.33333333333333
"144","NFCT","NFCT_17",2017-09-08 11:00:00,7.5
"145","07GRN077319","07GRN077319_17",2017-09-08 13:15:00,6.3125
"146","07GRN022903","07GRN022903_17",2017-09-11 11:30:00,3.15625
"147","07SFS009443","07SFS009443_17",2017-09-11 13:45:00,8.40625
"148","09MID1744","09MID1744_17",2017-09-12 09:30:00,4.90625
"149","07LMS103591","07LMS103591_17",2017-09-12 10:00:00,4.25
"150","09BLA0722","09BLA0722_17",2017-09-12 10:29:59,2.76388888888889
"151","07LMS213875","07LMS213875_17",2017-09-12 11:45:00,8
"152","08WES1579","08WES1579_17",2017-09-12 12:44:59,1.1875
"153","07LMS055075","07LMS055075_17",2017-09-12 13:00:00,2.78125
"154","Miller_Cove","Miller_Cove_17",2017-09-13 09:15:00,3.8125
"155","WalkerPreserve","WalkerPreserve_17",2017-09-13 11:30:00,3.65625
"156","Miller_SWSSD","Miller_SWSSD_17",2017-09-13 13:00:00,5.65625
"157","08SAM1914","08SAM1914_17",2017-09-14 08:45:00,1.53125
"158","PIMA7729","PIMA7729_17",2017-09-14 11:30:00,3.66666666666667
"159","PI02","PI02_17",2017-09-14 12:44:59,3
"160","KNKC","KNKC_17",2017-09-14 14:30:00,4
"161","08WES1037","08WES1037_17",2017-09-17 23:59:59,1.21875
"162","08BEA3737","08BEA3737_17",2017-09-18 00:44:59,2.90625
"163","08SAM2674","08SAM2674_17",2017-09-18 09:15:00,4.0625
"164","08WES1340","08WES1340_17",2017-09-18 09:44:59,1.5625
"165","TMMA1199","TMMA1199_17",2017-09-18 10:45:00,7
"166","08BEA3650","08BEA3650_17",2017-09-18 11:00:00,7.4375
"167","SFCC","SFCC_17",2017-09-20 13:00:00,5.25
"168","VashChris","VashChris_17",2017-09-20 14:59:59,2.6875
"169","TSMA7774","TSMA7774_17",2017-09-20 22:29:59,8
"170","08LIT2603","08LIT2603_17",2017-09-20 23:59:59,2.875
"171","08CED2711","08CED2711_17",2017-09-21 10:15:00,4.40625
"172","08LIT2602","08LIT2602_17",2017-09-21 11:14:59,3.6875
"173","08LIT2685","08LIT2685_17",2017-09-24 23:59:59,6.6875
"174","08LAK3628","08LAK3628_17",2017-09-25 09:15:00,3.03125
"175","07LNT062039","07LNT062039_17",2017-09-27 10:29:59,8.125
"176","07LNT075179","07LNT075179_17",2017-09-27 13:15:00,6.46875
"177","TNMA0609","TNMA0609_17",2017-09-28 12:15:00,7
"178","95T","95T_17",2017-09-28 13:15:00,6
"179","08LAK3880","08LAK3880_17",2017-09-28 14:00:00,4.9375
"180","TNMA6462","TNMA6462_17",2017-10-05 10:00:00,4.5
"181","MOHL","MOHL_17",2017-10-05 11:59:59,2
"182","09NEW2128","09NEW2128_17",2017-10-07 12:15:00,3.35714285714286
"183","08ISS4294","08ISS4294_17",2017-10-10 09:44:59,5.9375
"184","08ISS4724","08ISS4724_17",2017-10-26 14:14:59,4.8125
"185","08ISS3877","08ISS3877_18",2018-07-25 16:30:00,6.98818897637795
"186","08LAK2827","08LAK2827_18",2018-07-26 17:00:00,2.28838582677165
"187","08ISS4735","08ISS4735_18",2018-07-27 16:15:00,2.11614173228346
"188","09BLA0772","09BLA0772_18",2018-07-30 16:18:00,2.87893700787402
"189","09BLA0771","09BLA0771_18",2018-07-30 18:37:00,1.32874015748032
"190","08EAS2540","08EAS2540_18",2018-07-31 15:30:00,2.16535433070866
"191","08CED2518","08CED2518_18",2018-08-01 16:00:00,4.45374015748031
"192","08ISS4573","08ISS4573_18",2018-08-01 16:00:00,2.41141732283465
"193","08LAK3879","08LAK3879_18",2018-08-01 16:40:00,2.80511811023622
"194","08ISS4748","08ISS4748_18",2018-08-01 18:26:00,4.47834645669291
"195","08CED2711","08CED2711_18",2018-08-01 18:45:00,3.49409448818898
"196","08ISS4294","08ISS4294_18",2018-08-01 20:24:00,4.82283464566929
"197","08CED2898","08CED2898_18",2018-08-01 21:30:00,2.01771653543307
"198","08ISS3962","08ISS3962_18",2018-08-01 21:43:00,4.42913385826772
"199","08WES1178","08WES1178_18",2018-08-02 16:43:00,1.91929133858268
"200","08WES0622","08WES0622_18",2018-08-02 16:50:00,2.33759842519685
"201","08WES0629","08WES0629_18",2018-08-02 19:30:00,2.38681102362205
"202","08WES0905","08WES0905_18",2018-08-02 20:52:00,3.02657480314961
"203","07LMS033235","07LMS033235_18",2018-08-06 18:45:00,4.13385826771654
"204","08BEA3826","08BEA3826_18",2018-08-06 18:45:00,1.77165354330709
"205","07LMS213875","07LMS213875_18",2018-08-06 20:56:00,9.54724409448819
"206","08BEA3914","08BEA3914_18",2018-08-06 21:30:00,2.70669291338583
"207","08LAK3540","08LAK3540_18",2018-08-07 16:30:00,2.38681102362205
"208","07HAR070087","07HAR070087_18",2018-08-07 16:45:00,3.1496062992126
"209","09BLA0722","09BLA0722_18",2018-08-07 17:39:00,3.125
"210","07STL080295","07STL080295_18",2018-08-07 19:55:00,10.7037401574803
"211","09BLA0675","09BLA0675_18",2018-08-07 20:20:00,3.0511811023622
"212","07RAG043443","07RAG043443_18",2018-08-08 16:30:00,4.7490157480315
"213","08SAM3045","08SAM3045_18",2018-08-08 17:00:00,2.92814960629921
"214","09BLA0817","09BLA0817_18",2018-08-08 17:00:00,2.80511811023622
"215","08SAM2862","08SAM2862_18",2018-08-08 19:00:00,2.92814960629921
"216","08LAK3699","08LAK3699_18",2018-08-08 19:35:00,1.84547244094488
"217","09BLA0716","09BLA0716_18",2018-08-09 16:09:00,4.7490157480315
"218","BSE_21_GolfCrs","BSE_21_GolfCrs_18",2018-08-09 17:00:00,6.10236220472441
"219","09LOW0753","09LOW0753_18",2018-08-09 19:32:00,1.77165354330709
"220","08EVA3637","08EVA3637_18",2018-08-13 15:32:00,2.33759842519685
"221","07LMS026663","07LMS026663_18",2018-08-13 15:38:00,11.2696850393701
"222","07LMS093027","07LMS093027_18",2018-08-13 19:36:00,11.8110236220472
"223","08EAS2631","08EAS2631_18",2018-08-14 15:21:00,3.78937007874016
"224","08EAS2446","08EAS2446_18",2018-08-14 15:50:00,3.34645669291339
"225","08EAS1964","08EAS1964_18",2018-08-14 18:27:00,4.42913385826772
"226","07GRN077319","07GRN077319_18",2018-08-14 18:30:00,3.71555118110236
"227","08LAK3121","08LAK3121_18",2018-08-14 20:00:00,1.84547244094488
"228","08EAS2058","08EAS2058_18",2018-08-14 21:00:00,4.7244094488189
"229","08WES0903","08WES0903_18",2018-08-14 21:20:00,3.34645669291339
"230","09DUW0225","09DUW0225_18",2018-08-15 15:56:00,1.96850393700787
"231","09NEW2102","09NEW2102_18",2018-08-15 16:45:00,5.19192913385827
"232","09LOW0325","09LOW0325_18",2018-08-15 18:10:00,2.48523622047244
"233","09BLA0768","09BLA0768_18",2018-08-15 21:05:00,4.18307086614173
"234","09SOO1134","09SOO1134_18",2018-08-16 17:00:00,5.70866141732283
"235","08SAM0000","08SAM0000_18",2018-08-17 16:12:00,2.31299212598425
"236","09DUW0277","09DUW0277_18",2018-08-20 20:00:00,4.10925196850394
"237","09SOO1209","09SOO1209_18",2018-08-21 17:00:00,5.06889763779528
"238","09SOO1283","09SOO1283_18",2018-08-21 18:20:00,4.97047244094488
"239","09NEW2151","09NEW2151_18",2018-08-23 16:00:00,5.09350393700787
"240","09DEE2211","09DEE2211_18",2018-08-23 16:40:00,2.18996062992126
"241","09SOO1130","09SOO1130_18",2018-08-23 17:10:00,4.47834645669291
"242","09MID2426","09MID2426_18",2018-08-23 17:40:00,2.65748031496063
"243","09NEW1657","09NEW1657_18",2018-08-23 18:50:00,7.16043307086614
"244","09JEN1357","09JEN1357_18",2018-08-23 19:00:00,4.33070866141732
"245","09MID1817","09MID1817_18",2018-08-23 20:20:00,2.46062992125984
"246","09JEN1318","09JEN1318_18",2018-08-23 20:30:00,5.21653543307087
"247","BSE_1_MudMtnRd","BSE_1_MudMtnRd_18",2018-08-23 21:45:00,6.2007874015748
"248","09MID1374","09MID1374_18",2018-08-23 22:00:00,3.69094488188976
"249","09MIL0340","09MIL0340_18",2018-08-24 15:15:00,4.52755905511811
"250","09MIL0390","09MIL0390_18",2018-08-24 17:40:00,3.69094488188976
"251","08ISS3958","08ISS3958_18",2018-08-27 15:15:00,3.1003937007874
"252","08ISS4730","08ISS4730_18",2018-08-27 17:15:00,3.88779527559055
"253","08SAM1914","08SAM1914_18",2018-08-27 18:30:00,1.40255905511811
"254","07RAG018227","07RAG018227_18",2018-08-27 20:30:00,6.34842519685039
"255","08SAM3047","08SAM3047_18",2018-08-27 21:00:00,1.5748031496063
"256","08SAM2865","08SAM2865_18",2018-08-28 15:45:00,4.42913385826772
"257","07HAR025863","07HAR025863_18",2018-08-28 17:15:00,5.26574803149606
"258","08BEA3312","08BEA3312_18",2018-08-28 20:10:00,2.70669291338583
"259","08WES1340","08WES1340_18",2018-08-28 21:00:00,3.74015748031496
"260","08CED2433","08CED2433_18",2018-08-29 15:47:00,4.08464566929134
"261","08ISS4884","08ISS4884_18",2018-08-29 16:30:00,3.20584926884139
"262","28A","28A_18",2018-08-29 17:20:00,4.37992125984252
"263","07SFS066611","07SFS066611_18",2018-08-29 17:35:00,3.08070866141732
"264","09BLA0756","09BLA0756_18",2018-08-29 19:00:00,2.18996062992126
"265","VashShing","VashShin_18",2018-08-29 19:19:00,3.88779527559055
"266","07PAT228627","07PAT228627_18",2018-08-29 19:50:00,3.93700787401575
"267","07LMS055075","07LMS055075_18",2018-08-29 20:51:00,3.27263779527559
"268","08EVA3642","08EVA3642_18",2018-08-30 15:13:00,2.06692913385827
"269","Miller_Cove","Miller_Cove_18",2018-08-30 16:00:00,4.18307086614173
"270","08CED4192","08CED4192_18",2018-08-30 16:40:00,4.89665354330709
"271","08EVA3640","08EVA3640_18",2018-08-30 17:05:00,6.02854330708661
"272","Miller_SWSSD","Miller_SWSSD_18",2018-08-30 18:00:00,4.42913385826772
"273","Evans Creek Trib #0108","Evans Creek Trib #0108_18",2018-08-30 18:45:00,3.54330708661417
"274","08EVA3813","08EVA3813_18",2018-08-30 20:40:00,2.90354330708661
"275","WalkerPreserve","WalkerPreserve_18",2018-08-30 21:00:00,3.39020122484689
"276","08CED5032","08CED5032_18",2018-08-30 21:36:00,4.25688976377953
"277","08EAS2272","08EAS2272_18",2018-08-31 19:50:00,9.10433070866142
"278","07PAT231079","07PAT231079_18",2018-09-05 15:45:00,2.38681102362205
"279","09DEE2208","09DEE2208_18",2018-09-06 16:10:00,4.28149606299213
"280","07GRN022903","07GRN022903_18",2018-09-06 16:38:00,2.55905511811024
"281","09MID1537","09MID1537_18",2018-09-06 18:50:00,2.70669291338583
"282","07PAT187623","07PAT187623_18",2018-09-06 19:08:00,5.36417322834646
"283","07RAG004615","07RAG004615_18",2018-09-06 20:52:00,6.15157480314961
"284","08SAM2855","08SAM2855_18",2018-09-10 16:00:00,2.55905511811024
"285","08LIT2585","08LIT2585_18",2018-09-10 17:50:00,3.91240157480315
"286","08LIT2682","08LIT2682_18",2018-09-10 20:45:00,7.16043307086614
"287","09COV1756","09COV1756_18",2018-09-11 18:45:00,3.93700787401575
"288","07RAG042787","07RAG042787_18",2018-09-12 16:50:00,6.34842519685039
"289","07SFS011059","07SFS011059_18",2018-09-12 20:45:00,7.92322834645669
"290","08ISS4724","08ISS4724_18",2018-09-12 21:00:00,5.26574803149606
"291","08NOR1370","08NOR1370_18",2018-09-13 15:19:00,4.37992125984252
"292","08NOR1362","08NOR1362_18",2018-09-13 17:50:00,3.76476377952756
"293","08NOR1750","08NOR1750_18",2018-09-13 20:15:00,3.71555118110236
"294","08NOR2306","08NOR2306_18",2018-09-13 21:06:00,4.99507874015748
"295","08LIT2781","08LIT2781_18",2018-09-17 15:30:00,4.47834645669291
"296","08CED5046","08CED5046_18",2018-09-17 16:32:00,4.20767716535433
"297","08EAS1536","08EAS1536_18",2018-09-17 21:00:00,3.0511811023622
"298","07TKL072439","07TKL072439_18",2018-09-17 21:22:00,3.74015748031496
"299","07SFS009443","07SFS009443_18",2018-09-18 17:00:00,4.87204724409449
"300","07SFS041891","07SFS041891_18",2018-09-18 17:23:00,11.1220472440945
"301","07SFS011475","07SFS011475_18",2018-09-18 19:30:00,5.36417322834646
"302","07LMS103591","07LMS103591_18",2018-09-18 21:15:00,8.26771653543307
"303","09DUW0091","09DUW0091_18",2018-09-19 15:40:00,3.44488188976378
"304","08BEA3737","08BEA3737_18",2018-09-19 16:30:00,1.96850393700787
"305","07LST069191","07LST069191_18",2018-09-19 17:11:00,2.70669291338583
"306","08BEA3650","08BEA3650_18",2018-09-19 17:55:00,5.56102362204724
"307","08BEA3321","08BEA3321_18",2018-09-19 19:56:00,4.77362204724409
"308","07LNT163403","07LNT163403_18",2018-09-19 20:48:00,5.51181102362205
"309","08WES1037","08WES1037_18",2018-09-19 21:30:00,2.41141732283465
"310","09COV1862","09COV1862_18",2018-09-20 07:00:00,2.18996062992126
"311","07LNT062039","07LNT062039_18",2018-09-20 17:30:00,5.31496062992126
"312","09COV1864","09COV1864_18",2018-09-20 19:18:00,2.75590551181102
"313","07LNT130827","07LNT130827_18",2018-09-20 21:30:00,6.05314960629921
"314","08SAM2674","08SAM2674_18",2018-09-21 16:45:00,3.86318897637795
"315","08EAS2191","08EAS2191_18",2018-09-24 15:35:00,3.1003937007874
"316","07PAT001415","07PAT001415_18",2018-09-24 16:21:00,3.74015748031496
"317","08EAS2546","08EAS2546_18",2018-09-24 17:40:00,2.41141732283465
"318","07PAT166087","07PAT166087_18",2018-09-24 17:50:00,3.1742125984252
"319","09SOO1022","09SOO1022_18",2018-09-24 20:29:00,3.1496062992126
"320","08LAK3627","08LAK3627_18",2018-09-25 16:15:00,4.97047244094488
"321","07CHR070059","07CHR070059_18",2018-09-25 17:12:00,4.37992125984252
"322","08LAK3628","08LAK3628_18",2018-09-25 17:50:00,2.75590551181102
"323","07CHR234411","07CHR234411_18",2018-09-25 21:15:00,3.66633858267717
"324","09SOO0943","09SOO0943_18",2018-09-25 21:30:00,4.81053149606299
"325","07STL184007","07STL184007_18",2018-09-26 16:30:00,6.54527559055118
"326","07CHR045515","07CHR045515_18",2018-09-26 19:45:00,5.95472440944882
"327","VashChris","VashChris_18",2018-09-26 21:50:00,2.82972440944882
"328","09NEW2128","09NEW2128_18",2018-09-27 15:55:00,3.34645669291339
"329","08BEA3747","08BEA3747_18",2018-09-27 16:24:00,8.26771653543307
"330","09COV1418","09COV1418_18",2018-09-27 18:30:00,2.66978346456693
"331","07LNT075179","07LNT075179_18",2018-09-28 18:30:00,3.71555118110236
"332","07RAG022147","07RAG022147_18",2018-10-01 16:30:00,2.11614173228346
"333","07RAG002867","07RAG002867_18",2018-10-01 20:15:00,3.38336614173228
"334","08LIT2685","08LIT2685_18",2018-10-02 16:00:00,5.85629921259843
"335","08NOR2115","08NOR2115_18",2018-10-02 18:05:00,3.0511811023622
"336","08WES1490","08WES1490_18",2018-10-02 18:20:00,2.46062992125984
"337","08WES1579","08WES1579_18",2018-10-02 20:30:00,2.38681102362205
"338","BSE_8_268hAveSE","BSE_8_268hAveSE_18",2018-10-03 15:34:00,3.60482283464567
"339","09LOW0751","09LOW0751_18",2018-10-04 15:15:00,2.46062992125984
"340","08LAK3880","08LAK3880_18",2018-10-04 18:40:00,5.36417322834646
"341","09MID1744","09MID1744_18",2018-10-05 19:00:00,4.92125984251969
"342","07TKL047047","07TKL047047_18",2018-10-08 16:40:00,3.69094488188976
"343","08BEA3312","08BEA3312_19",2019-06-16 16:13:00,4.97047244094488
"344","08ISS3877","08ISS3877_19",2019-07-15 16:00:00,5.75787401574803
"345","08BEA3737","08BEA3737_19",2019-07-16 19:30:00,2.26377952755906
"346","08BEA3474","08BEA3474_19",2019-07-17 15:11:00,10.0393700787402
"347","08LIT2682","08LIT2682_19",2019-07-17 18:30:00,4.50295275590551
"348","08EAS1536","08EAS1536_19",2019-07-18 15:10:00,2.31299212598425
"349","09COV1862","09COV1862_19",2019-07-18 15:30:00,3.24803149606299
"350","08ISS3962","08ISS3962_19",2019-07-18 16:50:00,4.94586614173228
"351","08WES1178","08WES1178_19",2019-07-18 18:10:00,2.26377952755906
"352","09COV1864","09COV1864_19",2019-07-18 18:56:00,2.06692913385827
"353","08WES0905","08WES0905_19",2019-07-18 21:30:00,3.54330708661417
"354","07PAT166087","07PAT166087_19",2019-07-22 16:37:00,5.46259842519685
"355","07TKL072439","07TKL072439_19",2019-07-22 18:35:00,2.63287401574803
"356","08ISS4748","08ISS4748_19",2019-07-22 19:50:00,5.95472440944882
"357","09DUW0225","09DUW0225_19",2019-07-23 15:45:00,2.23917322834646
"358","08CED4192","08CED4192_19",2019-07-23 16:00:00,4.03543307086614
"359","09DUW0091","09DUW0091_19",2019-07-23 19:30:00,3.1742125984252
"360","08ISS4735","08ISS4735_19",2019-07-23 20:00:00,3.1496062992126
"361","08SAM2855","08SAM2855_19",2019-07-25 19:00:00,1.67322834645669
"362","07RAG004615","07RAG004615_19",2019-07-29 15:30:00,4.6998031496063
"363","08ISS4884","08ISS4884_19",2019-07-29 16:00:00,3.0511811023622
"364","07RAG018227","07RAG018227_19",2019-07-29 18:30:00,4.23228346456693
"365","08ISS4294","08ISS4294_19",2019-07-29 18:45:00,7.57874015748031
"366","09MID1958","09MID1958_19",2019-07-29 20:45:00,3.24803149606299
"367","08ISS4730","08ISS4730_19",2019-07-29 22:00:00,4.18307086614173
"368","08CED5032","08CED5032_19",2019-07-31 16:00:00,8.04625984251969
"369","08CED4975","08CED4975_19",2019-07-31 17:30:00,2.55905511811024
"370","08CED5046","08CED5046_19",2019-07-31 20:00:00,5.21653543307087
"371","08CED2898","08CED2898_19",2019-08-01 15:12:00,2.53444881889764
"372","07SFS066611","07SFS066611_19",2019-08-01 16:15:00,2.85433070866142
"373","08CED2518","08CED2518_19",2019-08-01 17:30:00,3.74015748031496
"374","07LMS055075","07LMS055075_19",2019-08-01 19:30:00,3.29724409448819
"375","08CED2711","08CED2711_19",2019-08-01 20:45:00,2.28838582677165
"376","08LIT2781","08LIT2781_19",2019-08-05 15:45:00,6.86515748031496
"377","08NOR2306","08NOR2306_19",2019-08-05 19:00:00,5.73326771653543
"378","08EVA3642","08EVA3642_19",2019-08-06 07:00:00,1.84547244094488
"379","08SAM2674","08SAM2674_19",2019-08-06 16:45:00,2.53444881889764
"380","08BEA3650","08BEA3650_19",2019-08-06 17:30:00,3.64173228346457
"381","08BEA3826","08BEA3826_19",2019-08-06 17:40:00,1.32874015748032
"382","08BEA3914","08BEA3914_19",2019-08-06 19:25:00,1.37795275590551
"383","08NOR1362","08NOR1362_19",2019-08-06 19:40:00,5.70866141732283
"384","08LAK3121","08LAK3121_19",2019-08-06 20:17:00,2.36220472440945
"385","07RAG002867","07RAG002867_19",2019-08-07 15:45:00,2.41141732283465
"386","09MID1374","09MID1374_19",2019-08-07 16:00:00,2.82972440944882
"387","07RAG043443","07RAG043443_19",2019-08-07 18:45:00,5.56102362204724
"388","09NEW1657","09NEW1657_19",2019-08-07 20:00:00,8.12007874015748
"389","08EVA3637","08EVA3637_19",2019-08-08 16:00:00,2.18996062992126
"390","07CHR045515","07CHR045515_19",2019-08-08 16:30:00,4.7490157480315
"391","08LAK3879","08LAK3879_19",2019-08-12 15:15:00,2.33759842519685
"392","07TKL047047","07TKL047047_19",2019-08-12 15:30:00,4.92125984251969
"393","07PAT001415","07PAT001415_19",2019-08-12 18:30:00,3.98622047244094
"394","09DUW0277","09DUW0277_19",2019-08-12 19:20:00,3.42027559055118
"395","09MID1817","09MID1817_19",2019-08-13 15:45:00,2.55905511811024
"396","09COV1756","09COV1756_19",2019-08-13 19:47:00,4.52755905511811
"397","07LMS033235","07LMS033235_19",2019-08-14 16:05:00,4.03543307086614
"398","07RAG022147","07RAG022147_19",2019-08-14 17:15:00,1.6240157480315
"399","09SOO1134","09SOO1134_19",2019-08-15 15:15:00,7.13582677165354
"400","09SOO1130","09SOO1130_19",2019-08-15 19:00:00,6.69291338582677
"401","08BEA3747","08BEA3747_19",2019-08-19 15:45:00,6.61909448818898
"402","09DEE2211","09DEE2211_19",2019-08-19 16:20:00,3.83858267716535
"403","08BEA3571","08BEA3571_19",2019-08-19 18:45:00,6.07775590551181
"404","08NOR1750","08NOR1750_19",2019-08-19 21:15:00,3.59251968503937
"405","07HAR025863","07HAR025863_19",2019-08-20 15:54:00,4.02137232845894
"406","08EAS2546","08EAS2546_19",2019-08-20 17:45:00,1.91929133858268
"407","07GRN022903","07GRN022903_19",2019-08-20 18:39:00,3.1742125984252
"408","08EAS1964","08EAS1964_19",2019-08-20 21:00:00,5.43799212598425
"409","08LAK3628","08LAK3628_19",2019-08-22 15:15:00,3.46948818897638
"410","07STL080295","07STL080295_19",2019-08-22 17:30:00,5.65944881889764
"411","08NOR1370","08NOR1370_19",2019-08-22 19:30:00,3.44488188976378
"412","07CHR234411","07CHR234411_19",2019-08-22 21:15:00,4.28149606299213
"413","WalkerPreserve","WalkerPreserve_19",2019-08-26 15:15:00,4.13385826771654
"414","Miller_SWSSD","Miller_SWSSD_19",2019-08-26 15:20:00,3.88779527559055
"415","Miller_Cove","Miller_Cove_19",2019-08-26 17:00:00,4.42913385826772
"416","08WES1340","08WES1340_19",2019-08-26 18:15:00,2.70669291338583
"417","08SAM2865","08SAM2865_19",2019-08-27 15:30:00,3.74015748031496
"418","07LNT163403","07LNT163403_19",2019-08-27 16:30:00,3.91240157480315
"419","07SFS041891","07SFS041891_19",2019-08-27 20:27:00,10.3838582677165
"420","07PAT187623","07PAT187623_19",2019-08-28 15:45:00,3.1003937007874
"421","08SAM3047","08SAM3047_19",2019-08-28 16:15:00,1.03346456692913
"422","07PAT231079","07PAT231079_19",2019-08-28 17:53:00,2.53444881889764
"423","09BLA0768","09BLA0768_19",2019-08-28 18:20:00,3.29724409448819
"424","08WES0622","08WES0622_19",2019-08-28 20:05:00,1.72244094488189
"425","09DEE2208","09DEE2208_19",2019-08-28 21:00:00,4.87204724409449
"426","08LAK3540","08LAK3540_19",2019-08-29 15:15:00,2.73129921259843
"427","08ISS3958","08ISS3958_19",2019-08-29 16:15:00,2.53444881889764
"428","08ISS4573","08ISS4573_19",2019-08-29 18:00:00,2.75590551181102
"429","07CHR070059","07CHR070059_19",2019-09-03 16:00:00,3.39566929133858
"430","07GRN077319","07GRN077319_19",2019-09-03 18:00:00,4.60137795275591
"431","09BLA0817","09BLA0817_19",2019-09-04 18:55:00,1.42716535433071
"432","08EAS2058","08EAS2058_19",2019-09-04 21:10:00,4.87204724409449
"433","09LOW0753","09LOW0753_19",2019-09-05 16:15:00,2.73129921259843
"434","07LMS026663","07LMS026663_19",2019-09-05 17:15:00,9.89173228346457
"435","09LOW0751","09LOW0751_19",2019-09-05 18:15:00,2.36220472440945
"436","07LMS103591","07LMS103591_19",2019-09-05 19:45:00,5.16732283464567
"437","09JEN1318","09JEN1318_19",2019-09-05 20:15:00,7.67716535433071
"438","08LAK3699","08LAK3699_19",2019-09-09 18:15:00,3.59251968503937
"439","09LOW0325","09LOW0325_19",2019-09-10 15:15:00,2.87893700787402
"440","BSE_21_GolfCrs","BSE_21_GolfCrs_19",2019-09-10 16:45:00,7.13582677165354
"441","09MIL0340","09MIL0340_19",2019-09-10 17:15:00,3.98622047244094
"442","08EVA3813","08EVA3813_19",2019-09-10 18:15:00,2.95275590551181
"443","09NEW2128","09NEW2128_19",2019-09-10 19:30:00,3.88779527559055
"444","08EAS2446","08EAS2446_19",2019-09-11 15:24:00,3.02657480314961
"445","08EAS2540","08EAS2540_19",2019-09-11 17:30:00,1.40607424071991
"446","09MID1744","09MID1744_19",2019-09-11 18:15:00,3.44488188976378
"447","08LAK2827","08LAK2827_19",2019-09-11 20:00:00,2.38681102362205
"448","07SFS011475","07SFS011475_19",2019-09-12 15:30:00,7.43110236220472
"449","09COV1165","09COV1165_19",2019-09-12 15:30:00,5.56102362204724
"450","07LMS093027","07LMS093027_19",2019-09-12 17:15:00,10.8267716535433
"451","07SFS011059","07SFS011059_19",2019-09-12 19:30:00,11.8110236220472
"452","08EVA3640","08EVA3640_19",2019-09-16 15:40:00,4.87204724409449
"453","08EAS2191","08EAS2191_19",2019-09-16 18:05:00,2.46062992125984
"454","08LIT2585","08LIT2585_19",2019-09-17 18:00:00,6.44685039370079
"455","08SAM2862","08SAM2862_19",2019-09-18 16:45:00,3.00196850393701
"456","08EAS2631","08EAS2631_19",2019-09-18 17:00:00,6.05314960629921
"457","08SAM3045","08SAM3045_19",2019-09-18 20:00:00,2.95275590551181
"458","08WES1037","08WES1037_19",2019-09-18 20:15:00,2.14074803149606
"459","08LAK3880","08LAK3880_19",2019-09-19 14:45:00,3.0511811023622
"460","07HAR070087","07HAR070087_19",2019-09-19 15:00:00,3.78937007874016
"461","09BLA0771","09BLA0771_19",2019-09-19 15:15:00,1.69783464566929
"462","09SOO1283","09SOO1283_19",2019-09-19 16:15:00,4.97047244094488
"463","09COV1418","09COV1418_19",2019-09-19 17:15:00,2.97736220472441
"464","07SFS009443","07SFS009443_19",2019-09-19 17:45:00,7.28346456692913
"465","09SOO1022","09SOO1022_19",2019-09-19 20:15:00,3.98622047244094
"466","08LAK3627","08LAK3627_19",2019-09-23 15:15:00,4.20767716535433
"467","08CED2433","08CED2433_19",2019-09-23 17:15:00,5.68405511811024
"468","08WES1490","08WES1490_19",2019-09-23 19:15:00,2.09153543307087
"469","09BLA0675","09BLA0675_19",2019-09-24 15:10:00,3.56791338582677
"470","09MIL0390","09MIL0390_19",2019-09-24 17:30:00,3.51870078740157
"471","08SAM0000","08SAM0000_19",2019-09-24 19:30:00,4.18307086614173
"472","09JEN1357","09JEN1357_19",2019-09-24 20:00:00,5.46259842519685
"473","07PAT228627","07PAT228627_19",2019-09-25 15:30:00,4.55216535433071
"474","08WES0629","08WES0629_19",2019-09-25 18:30:00,2.85433070866142
"475","09BLA0716","09BLA0716_19",2019-09-26 15:00:00,4.84744094488189
"476","09MID1537","09MID1537_19",2019-09-26 17:30:00,2.82972440944882
"477","09SOO1209","09SOO1209_19",2019-09-26 19:45:00,7.67716535433071
"478","VashShing","VashShin_19",2019-09-30 15:45:00,3.125
"479","09DEE2294","09DEE2294_19",2019-09-30 16:15:00,6.61909448818898
"480","VashChris","VashChris_19",2019-09-30 17:45:00,2.50984251968504
"481","28A","28A_19",2019-09-30 19:00:00,3.81397637795276
"482","09MID2426","09MID2426_19",2019-09-30 20:15:00,3.54330708661417
"483","08LIT2602","08LIT2602_19",2019-10-01 15:15:00,4.15846456692913
"484","08BEA3321","08BEA3321_19",2019-10-01 16:00:00,6.79133858267716
"485","08WES0903","08WES0903_19",2019-10-01 17:15:00,5.85629921259843
"486","08LIT2692","08LIT2692_19",2019-10-01 17:45:00,4.82283464566929
"487","08SAM1914","08SAM1914_19",2019-10-01 20:45:00,2.60826771653543
"488","07LNT075179","07LNT075179_19",2019-10-02 17:15:00,4.7244094488189
"489","09NEW2102","09NEW2102_19",2019-10-03 16:15:00,3.83858267716535
"490","08EAS2272","08EAS2272_19",2019-10-03 19:30:00,7.18503937007874
"491","09NEW2076","09NEW2076_19",2019-10-07 16:00:00,3.125
"492","08LIT2603","08LIT2603_19",2019-10-07 20:15:00,6.64370078740157
"493","08ISS4724","08ISS4724_19",2019-10-11 15:15:00,4.28149606299213
"494","08ISS3877","08ISS3877_20",2020-07-20 17:30:00,7.92322834645669
"495","08BEA3737","08BEA3737_20",2020-07-21 20:20:00,2.01771653543307
"496","09MIL0340","09MIL0340_20",2020-07-22 17:00:00,2.73129921259843
"497","09MIL0390","09MIL0390_20",2020-07-22 18:45:00,2.70669291338583
"498","09DUW0225","09DUW0225_20",2020-07-22 22:15:00,2.41141732283465
"499","09COV1165","09COV1165_20",2020-07-23 16:35:00,6.49606299212598
"500","09JEN1318","09JEN1318_20",2020-07-23 20:30:00,7.23425196850394
"501","09BLA0675","09BLA0675_20",2020-07-27 17:00:00,4.33070866141732
"502","08EAS2058","08EAS2058_20",2020-07-27 19:30:00,3.29724409448819
"503","09BLA0716","09BLA0716_20",2020-07-27 19:45:00,4.37992125984252
"504","09DUW0091","09DUW0091_20",2020-07-28 15:30:00,2.63287401574803
"505","08CED5046","08CED5046_20",2020-07-28 17:45:00,4.50295275590551
"506","08ISS4724","08ISS4724_20",2020-07-28 18:15:00,5.41338582677165
"507","09COV1756","09COV1756_20",2020-07-28 19:50:00,4.89665354330709
"508","08CED5032","08CED5032_20",2020-07-28 21:30:00,6.07775590551181
"509","08ISS4294","08ISS4294_20",2020-07-29 15:50:00,3.98622047244094
"510","07PAT231079","07PAT231079_20",2020-07-29 16:30:00,2.31299212598425
"511","09MID1374","09MID1374_20",2020-07-29 17:30:00,3.83858267716535
"512","09COV1418","09COV1418_20",2020-07-29 21:00:00,3.59251968503937
"513","08WES1178","08WES1178_20",2020-07-30 15:30:00,2.21948818897638
"514","09COV1862","09COV1862_20",2020-07-30 16:30:00,2.31299212598425
"515","08NOR1370","08NOR1370_20",2020-07-30 18:30:00,3.34645669291339
"516","08ISS4884","08ISS4884_20",2020-08-03 17:00:00,2.73129921259843
"517","09MID1817","09MID1817_20",2020-08-03 18:15:00,3.81397637795276
"518","08ISS4748","08ISS4748_20",2020-08-03 20:00:00,3.96161417322835
"519","09COV1864","09COV1864_20",2020-08-03 21:00:00,1.6240157480315
"520","08ISS3962","08ISS3962_20",2020-08-03 22:20:00,6.92257217847769
"521","08EVA3640","08EVA3640_20",2020-08-04 16:00:00,5.58562992125984
"522","09SOO1134","09SOO1134_20",2020-08-04 16:00:00,8.16929133858268
"523","07HAR025863","07HAR025863_20",2020-08-05 16:40:00,3.74015748031496
"524","08CED2898","08CED2898_20",2020-08-05 16:50:00,2.31299212598425
"525","09LOW0753","09LOW0753_20",2020-08-05 19:10:00,2.09153543307087
"526","08CED4192","08CED4192_20",2020-08-05 19:30:00,4.45374015748031
"527","08CED2518","08CED2518_20",2020-08-05 23:10:00,3.83858267716535
"528","09DEE2211","09DEE2211_20",2020-08-06 16:35:00,4.7244094488189
"529","08LAK3879","08LAK3879_20",2020-08-06 17:15:00,3.00196850393701
"530","09DEE2208","09DEE2208_20",2020-08-06 19:00:00,6.64370078740157
"531","08WES0622","08WES0622_20",2020-08-06 19:01:00,1.72244094488189
"532","08WES0629","08WES0629_20",2020-08-06 20:45:00,2.60826771653543
"533","09NEW2102","09NEW2102_20",2020-08-06 21:45:00,4.77362204724409
"534","07PAT166087","07PAT166087_20",2020-08-10 17:15:00,4.25688976377953
"535","08BEA3650","08BEA3650_20",2020-08-10 17:45:00,6.59448818897638
"536","07PAT187623","07PAT187623_20",2020-08-10 20:00:00,10.2608267716535
"537","09BLA0771","09BLA0771_20",2020-08-11 15:30:00,1.47637795275591
"538","08LIT2685","08LIT2685_20",2020-08-11 17:30:00,6.93897637795276
"539","09BLA0772","09BLA0772_20",2020-08-11 17:30:00,1.79625984251968
"540","08CED2711","08CED2711_20",2020-08-11 20:00:00,2.18996062992126
"541","08LIT2692","08LIT2692_20",2020-08-11 21:23:00,4.33070866141732
"542","08NOR1750","08NOR1750_20",2020-08-12 16:45:00,3.49409448818898
"543","07LMS033235","07LMS033235_20",2020-08-12 17:30:00,4.33070866141732
"544","07LMS213875","07LMS213875_20",2020-08-12 20:30:00,8.09547244094488
"545","08SAM2855","08SAM2855_20",2020-08-12 20:30:00,2.11614173228346
"546","08BEA3571","08BEA3571_20",2020-08-12 21:00:00,6.74212598425197
"547","08LAK3121","08LAK3121_20",2020-08-13 16:30:00,2.75590551181102
"548","09BLA0817","09BLA0817_20",2020-08-13 18:30:00,1.5255905511811
"549","08LAK2827","08LAK2827_20",2020-08-13 19:45:00,3.02657480314961
"550","07TKL072439","07TKL072439_20",2020-08-13 20:00:00,2.82972440944882
"551","08CED2433","08CED2433_20",2020-08-17 16:20:00,4.10925196850394
"552","09BLA0722","09BLA0722_20",2020-08-17 19:40:00,2.80511811023622
"553","09JEN1357","09JEN1357_20",2020-08-17 22:00:00,4.58380202474691
"554","08ISS4730","08ISS4730_20",2020-08-18 16:30:00,4.82283464566929
"555","08ISS4735","08ISS4735_20",2020-08-18 19:45:00,2.48523622047244
"556","08NOR2115","08NOR2115_20",2020-08-18 21:40:00,3.49409448818898
"557","08LAK3628","08LAK3628_20",2020-08-19 16:40:00,2.38681102362205
"558","09BLA0768","09BLA0768_20",2020-08-19 19:40:00,2.97736220472441
"559","08EAS1964","08EAS1964_20",2020-08-19 22:00:00,3.71555118110236
"560","08SAM2674","08SAM2674_20",2020-08-20 16:15:00,2.70669291338583
"561","08BEA3914","08BEA3914_20",2020-08-20 17:00:00,1.47637795275591
"562","08BEA3826","08BEA3826_20",2020-08-20 18:24:00,1.42716535433071
"563","08EAS2191","08EAS2191_20",2020-08-20 18:40:00,2.58366141732283
"564","08SAM3047","08SAM3047_20",2020-08-20 20:35:00,1.67322834645669
"565","08EVA3637","08EVA3637_20",2020-08-20 21:30:00,2.23917322834646
"566","08LIT2781","08LIT2781_20",2020-08-21 07:10:00,2.50984251968504
"567","08SAM1914","08SAM1914_20",2020-08-21 16:45:00,2.09153543307087
"568","07SFS066611","07SFS066611_20",2020-08-24 17:40:00,1.79625984251968
"569","09DEE2163","09DEE2163_20",2020-08-24 17:50:00,2.78051181102362
"570","09DUW0277","09DUW0277_20",2020-08-24 20:30:00,3.00196850393701
"571","07SFS009443","07SFS009443_20",2020-08-24 21:30:00,4.97047244094488
"572","09LOW0325","09LOW0325_20",2020-08-24 22:10:00,2.80511811023622
"573","07PAT001415","07PAT001415_20",2020-08-25 16:00:00,4.18307086614173
"574","08NOR2306","08NOR2306_20",2020-08-25 16:00:00,5.80708661417323
"575","08NOR1362","08NOR1362_20",2020-08-25 19:00:00,4.92125984251969
"576","07STL080295","07STL080295_20",2020-08-25 19:15:00,7.8248031496063
"577","08WES0905","08WES0905_20",2020-08-25 22:15:00,2.97736220472441
"578","07RAG002867","07RAG002867_20",2020-08-26 18:40:00,1.5748031496063
"579","07LNT130827","07LNT130827_20",2020-08-26 20:00:00,9.375
"580","Miller_Cove","Miller_Cove_20",2020-08-27 16:15:00,2.85433070866142
"581","07RAG012515","07RAG012515_20",2020-08-27 17:10:00,5.24114173228346
"582","Miller_SWSSD","Miller_SWSSD_20",2020-08-27 18:55:00,3.39566929133858
"583","08EVA3813","08EVA3813_20",2020-08-27 20:00:00,2.01771653543307
"584","08LIT2682","08LIT2682_20",2020-08-27 20:30:00,5.70866141732283
"585","WalkerPreserve","WalkerPreserve_20",2020-08-27 21:15:00,2.70669291338583
"586","08EAS1536","08EAS1536_20",2020-08-31 17:45:00,2.14074803149606
"587","BSE_1_MudMtnRd","BSE_1_MudMtnRd_20",2020-08-31 18:00:00,3.66633858267717
"588","BSE_8_268hAveSE","BSE_8_268hAveSE_20",2020-08-31 20:50:00,2.36220472440945
"589","08BEA3747","08BEA3747_20",2020-08-31 21:00:00,7.13582677165354
"590","08WES1579","08WES1579_20",2020-09-01 15:52:00,1.87007874015748
"591","07RAG004615","07RAG004615_20",2020-09-01 16:15:00,4.6259842519685
"592","08WES1490","08WES1490_20",2020-09-01 17:45:00,1.87007874015748
"593","07RAG018227","07RAG018227_20",2020-09-01 19:30:00,4.28149606299213
"594","08WES1340","08WES1340_20",2020-09-01 20:00:00,2.46062992125984
"595","08WES1037","08WES1037_20",2020-09-01 22:05:00,2.11614173228346
"596","08EVA3642","08EVA3642_20",2020-09-02 16:00:00,1.96850393700787
"597","08SAM2865","08SAM2865_20",2020-09-02 16:15:00,3.98622047244094
"598","07HAR070087","07HAR070087_20",2020-09-02 16:30:00,3.39566929133858
"599","09SOO1130","09SOO1130_20",2020-09-02 16:45:00,8.02165354330709
"600","BSE_21_GolfCrs","BSE_21_GolfCrs_20",2020-09-02 20:15:00,6.93897637795276
"601","07RAG022147","07RAG022147_20",2020-09-03 16:50:00,1.37795275590551
"602","08EAS2631","08EAS2631_20",2020-09-03 18:20:00,3.76476377952756
"603","07SFS041891","07SFS041891_20",2020-09-03 20:25:00,7.92322834645669
"604","08EAS2272","08EAS2272_20",2020-09-03 21:00:00,4.15846456692913
"605","08SAM0000","08SAM0000_20",2020-09-09 19:00:00,2.50984251968504
"606","07STL184007","07STL184007_20",2020-09-10 18:00:00,6.10236220472441
"607","08LAK3540","08LAK3540_20",2020-09-21 16:00:00,2.95275590551181
"608","08LIT2585","08LIT2585_20",2020-09-21 16:30:00,3.29724409448819
"609","07LMS055075","07LMS055075_20",2020-09-21 16:45:00,2.58366141732283
"610","08LAK3627","08LAK3627_20",2020-09-21 17:55:00,3.74015748031496
"611","08BEA3312","08BEA3312_20",2020-09-21 18:50:00,3.83858267716535
"612","07TKL047047","07TKL047047_20",2020-09-21 20:00:00,5.38877952755905
"613","08EAS2546","08EAS2546_20",2020-09-21 22:00:00,2.58366141732283
"614","08EAS2446","08EAS2446_20",2020-09-22 15:10:00,2.82972440944882
"615","07LMS103591","07LMS103591_20",2020-09-22 16:42:00,4.08464566929134
"616","07LNT062039","07LNT062039_20",2020-09-22 17:15:00,4.23228346456693
"617","08EAS2540","08EAS2540_20",2020-09-22 17:15:00,1.30413385826772
"618","07LMS026663","07LMS026663_20",2020-09-22 18:55:00,5.34308211473566
"619","09MID1537","09MID1537_20",2020-09-22 20:00:00,1.5994094488189
"620","07LNT075179","07LNT075179_20",2020-09-22 20:15:00,3.88779527559055
"621","07SFS011475","07SFS011475_20",2020-09-22 21:11:00,4.82283464566929
"622","VashShing","VashShin_20",2020-09-22 21:20:00,2.65748031496063
"623","08LIT2602","08LIT2602_20",2020-09-22 21:45:00,3.49409448818898
"624","07GRN022903","07GRN022903_20",2020-09-23 16:30:00,4.47834645669291
"625","09MID2426","09MID2426_20",2020-09-23 16:30:00,2.63287401574803
"626","07LNT163403","07LNT163403_20",2020-09-29 17:45:00,3.42027559055118
"627","09MID1958","09MID1958_20",2020-09-29 17:45:00,1.87007874015748
"628","07CHR070059","07CHR070059_20",2020-09-29 18:15:00,3.1742125984252
"629","09MID1744","09MID1744_20",2020-09-29 20:25:00,3.83858267716535
"630","07CHR045515","07CHR045515_20",2020-09-29 21:45:00,8.02165354330709
"631","08LIT2603","08LIT2603_20",2020-09-29 22:00:00,4.94586614173228
"632","07RAG043443","07RAG043443_20",2020-09-30 16:30:00,4.45374015748031
"633","09DEE2294","09DEE2294_20",2020-09-30 16:30:00,2.78051181102362
"634","08SAM2862","08SAM2862_20",2020-09-30 17:00:00,2.90354330708661
"635","09NEW2128","09NEW2128_20",2020-09-30 18:45:00,4.45374015748031
"636","07GRN077319","07GRN077319_20",2020-09-30 19:45:00,4.06003937007874
"637","08SAM3045","08SAM3045_20",2020-09-30 20:00:00,2.60826771653543
"638","08ISS4573","08ISS4573_20",2020-10-01 17:40:00,2.85433070866142
"639","09NEW1657","09NEW1657_20",2020-10-01 17:53:00,3.59955005624297
"640","09SOO1209","09SOO1209_20",2020-10-01 18:15:00,7.06200787401575
"641","09LOW0751","09LOW0751_20",2020-10-01 18:30:00,2.41141732283465
"642","08LAK3880","08LAK3880_20",2020-10-01 19:30:00,3.1003937007874
"643","09SOO1022","09SOO1022_20",2020-10-01 20:45:00,3.00196850393701
"644","09NEW2076","09NEW2076_20",2020-10-01 21:00:00,2.23917322834646
"645","07CHR234411","07CHR234411_20",2020-10-02 16:30:00,4.45374015748031
"646","28A","28A_20",2020-10-05 20:30:00,3.54330708661417
"647","VashChris","VashChris_20",2020-10-05 22:00:00,2.95275590551181
"648","09SOO1283","09SOO1283_20",2020-10-06 21:00:00,3.29724409448819
"649","07SFS011059","07SFS011059_20",2020-10-07 16:30:00,9.84251968503937
"650","07PAT228627","07PAT228627_20",2020-10-07 19:00:00,4.28149606299213
"651","07LMS093027","07LMS093027_20",2020-10-07 19:21:00,9.25196850393701
"652","08LAK3699","08LAK3699_20",2020-10-07 21:50:00,3.74015748031496
"653","08CED5046","08CED5046_21",2021-07-12 20:45:00,4.6259842519685
"654","08CED5032","08CED5032_21",2021-07-13 20:45:00,6.34842519685039
"655","08WES1178","08WES1178_21",2021-07-14 19:30:00,2.06692913385827
"656","08ISS4724","08ISS4724_21",2021-07-14 20:45:00,4.15846456692913
"657","08SAM1914","08SAM1914_21",2021-07-19 16:00:00,1.67322834645669
"658","09MIL0340","09MIL0340_21",2021-07-19 16:00:00,3.69094488188976
"659","08SAM2855","08SAM2855_21",2021-07-19 18:45:00,1.37795275590551
"660","09MIL0390","09MIL0390_21",2021-07-19 19:15:00,2.50984251968504
"661","08BEA3312","08BEA3312_21",2021-07-19 21:00:00,1.87007874015748
"662","09MID1817","09MID1817_21",2021-07-19 21:45:00,4.03543307086614
"663","07HAR070087","07HAR070087_21",2021-07-20 17:15:00,3.1742125984252
"664","07TKL072439","07TKL072439_21",2021-07-20 19:30:00,2.55905511811024
"665","08EVA3642","08EVA3642_21",2021-07-20 20:15:00,1.45177165354331
"666","07LMS055075","07LMS055075_21",2021-07-21 16:15:00,2.90354330708661
"667","07PAT231079","07PAT231079_21",2021-07-21 16:30:00,2.06692913385827
"668","08EAS2540","08EAS2540_21",2021-07-21 19:45:00,1.42716535433071
"669","08EAS2446","08EAS2446_21",2021-07-21 22:00:00,2.90354330708661
"670","09COV1862","09COV1862_21",2021-07-22 15:30:00,2.85433070866142
"671","08CED2898","08CED2898_21",2021-07-22 16:15:00,2.11614173228346
"672","08WES0622","08WES0622_21",2021-07-22 17:00:00,1.87007874015748
"673","08EAS2631","08EAS2631_21",2021-07-22 18:36:00,2.90354330708661
"674","09COV1864","09COV1864_21",2021-07-22 19:00:00,1.6240157480315
"675","08ISS4730","08ISS4730_21",2021-07-26 17:00:00,4.6751968503937
"676","07SFS066611","07SFS066611_21",2021-07-26 17:20:00,3.1496062992126
"677","08ISS4735","08ISS4735_21",2021-07-26 20:30:00,1.87007874015748
"678","08ISS4748","08ISS4748_21",2021-07-26 20:50:00,4.97047244094488
"679","08WES0905","08WES0905_21",2021-07-26 22:30:00,2.80511811023622
"680","08ISS3877","08ISS3877_21",2021-07-27 15:45:00,4.6259842519685
"681","09DUW0091","09DUW0091_21",2021-07-28 16:15:00,2.21456692913386
"682","ZAK","ZAK_21",2021-07-28 16:30:00,3.1496062992126
"683","09DEE2211","09DEE2211_21",2021-07-28 17:00:00,4.57677165354331
"684","09DUW0225","09DUW0225_21",2021-07-28 19:30:00,1.77165354330709
"685","09NEW2128","09NEW2128_21",2021-07-28 19:30:00,3.00196850393701
"686","08LAK3540","08LAK3540_21",2021-07-28 20:00:00,2.01771653543307
"687","09NEW2102","09NEW2102_21",2021-07-28 21:00:00,3.83858267716535
"688","08EAS2058","08EAS2058_21",2021-07-29 16:45:00,3.29724409448819
"689","08CED4192","08CED4192_21",2021-08-02 17:00:00,6.10236220472441
"690","09JEN1318","09JEN1318_21",2021-08-02 20:30:00,5.97933070866142
"691","09JEN1357","09JEN1357_21",2021-08-02 22:15:00,5.85629921259843
"692","08BEA3650","08BEA3650_21",2021-08-04 15:30:00,5.90551181102362
"693","08WES0903","08WES0903_21",2021-08-04 17:30:00,3.39566929133858
"694","09SOO1022","09SOO1022_21",2021-08-04 17:30:00,2.23917322834646
"695","08BEA3737","08BEA3737_21",2021-08-04 18:00:00,2.73129921259843
"696","09SOO1134","09SOO1134_21",2021-08-04 20:30:00,7.13582677165354
"697","08EAS2191","08EAS2191_21",2021-08-04 21:30:00,2.95275590551181
"698","07LMS033235","07LMS033235_21",2021-08-05 16:00:00,3.37106299212598
"699","09MID1958","09MID1958_21",2021-08-05 16:45:00,1.5255905511811
"700","09MID1744","09MID1744_21",2021-08-05 20:15:00,3.83858267716535
"701","08LAK2827","08LAK2827_21",2021-08-05 20:30:00,2.73129921259843
"702","07RAG004615","07RAG004615_21",2021-08-09 17:00:00,9.94094488188976
"703","08BEA3747","08BEA3747_21",2021-08-09 17:00:00,3.78937007874016
"704","07PAT166087","07PAT166087_21",2021-08-09 20:00:00,4.87204724409449
"705","08NOR1370","08NOR1370_21",2021-08-09 21:00:00,5.11811023622047
"706","08WES1490","08WES1490_21",2021-08-12 15:30:00,2.11614173228346
"707","09LOW0753","09LOW0753_21",2021-08-12 16:00:00,1.5748031496063
"708","07STL184007","07STL184007_21",2021-08-12 17:30:00,5.46259842519685
"709","08LIT2692","08LIT2692_21",2021-08-12 18:15:00,5.11811023622047
"710","08WES1579","08WES1579_21",2021-08-12 18:20:00,1.79625984251968
"711","09SOO0943","09SOO0943_21",2021-08-12 19:15:00,7.52952755905512
"712","08LIT2602","08LIT2602_21",2021-08-12 22:00:00,3.29724409448819
"713","07PAT228627","07PAT228627_21",2021-08-17 16:45:00,3.1496062992126
"714","07RAG043443","07RAG043443_21",2021-08-17 21:30:00,6.00393700787402
"715","09DUW0277","09DUW0277_21",2021-08-18 18:30:00,3.83858267716535
"716","08EAS2546","08EAS2546_21",2021-08-19 16:00:00,2.01771653543307
"717","08SAM0000","08SAM0000_21",2021-08-19 16:45:00,3.0511811023622
"718","08WES0629","08WES0629_21",2021-08-19 21:00:00,2.60826771653543
"719","07GRN022903","07GRN022903_21",2021-08-23 17:05:00,2.75590551181102
"720","07CHR045515","07CHR045515_21",2021-08-23 17:45:00,3.83858267716535
"721","07LNT062039","07LNT062039_21",2021-08-23 20:45:00,6.05314960629921
"722","07CHR234411","07CHR234411_21",2021-08-23 22:00:00,3.91240157480315
"723","08LAK3121","08LAK3121_21",2021-08-24 16:45:00,1.94389763779528
"724","07LNT075179","07LNT075179_21",2021-08-24 18:30:00,4.7244094488189
"725","08NOR2115","08NOR2115_21",2021-08-24 20:30:00,3.88779527559055
"726","08ISS3962","08ISS3962_21",2021-08-25 17:15:00,5.61023622047244
"727","07LNT130827","07LNT130827_21",2021-08-25 18:00:00,8.95669291338583
"728","08SAM2674","08SAM2674_21",2021-08-26 16:45:00,2.55905511811024
"729","08ISS4573","08ISS4573_21",2021-08-26 17:00:00,2.55905511811024
"730","08LAK3699","08LAK3699_21",2021-08-26 20:00:00,3.24803149606299
"731","08BEA3474","08BEA3474_21",2021-08-26 21:00:00,10.2362204724409
"732","08WES1340","08WES1340_21",2021-08-30 16:45:00,2.65748031496063
"733","08LIT2585","08LIT2585_21",2021-08-31 17:15:00,3.59251968503937
"734","08SAM2862","08SAM2862_21",2021-08-31 21:00:00,2.50984251968504
"735","BSE_1_MudMtnRd","BSE_1_MudMtnRd_21",2021-09-01 16:30:00,3.54330708661417
"736","BSE_8_268hAveSE","BSE_8_268hAveSE_21",2021-09-01 19:15:00,4.28149606299213
"737","BSE_21_GolfCrs","BSE_21_GolfCrs_21",2021-09-01 21:00:00,4.92125984251969
"738","07PAT001415","07PAT001415_21",2021-09-02 17:00:00,3.69094488188976
"739","08BEA3914","08BEA3914_21",2021-09-02 17:00:00,1.82086614173228
"740","07STL080295","07STL080295_21",2021-09-02 20:30:00,7.52952755905512
"741","08BEA3826","08BEA3826_21",2021-09-02 20:30:00,1.42716535433071
"742","07SFS041891","07SFS041891_21",2021-09-02 20:45:00,8.66141732283465
"743","08SAM3047","08SAM3047_21",2021-09-08 18:30:00,1.47637795275591
"744","08EVA3813","08EVA3813_21",2021-09-09 16:30:00,2.41141732283465
"745","08SAM3045","08SAM3045_21",2021-09-09 19:45:00,2.70669291338583
"746","VashShing","VashShin_21",2021-09-13 16:30:00,3.39566929133858
"747","09BLA0716","09BLA0716_21",2021-09-13 16:45:00,3.98622047244094
"748","07LMS213875","07LMS213875_21",2021-09-13 17:15:00,8.41535433070866
"749","28A","28A_21",2021-09-13 18:30:00,3.64173228346457
"750","09BLA0675","09BLA0675_21",2021-09-13 19:30:00,3.56791338582677
"751","VashChris","VashChris_21",2021-09-13 21:00:00,3.00196850393701
"752","07SFS009443","07SFS009443_21",2021-09-13 21:15:00,8.61220472440945
"753","09BLA0771","09BLA0771_21",2021-09-13 21:45:00,1.30413385826772
"754","08CED2433","08CED2433_21",2021-09-14 16:15:00,3.88779527559055
"755","Miller_Cove","Miller_Cove_21",2021-09-14 16:30:00,3.00196850393701
"756","08CED2518","08CED2518_21",2021-09-14 18:00:00,3.00196850393701
"757","Miller_SWSSD","Miller_SWSSD_21",2021-09-14 19:50:00,3.34645669291339
"758","08CED2711","08CED2711_21",2021-09-14 21:00:00,2.85433070866142
"759","09NEW1657","09NEW1657_21",2021-09-15 16:45:00,4.37992125984252
"760","09BLA0772","09BLA0772_21",2021-09-15 21:00:00,2.36220472440945
"761","08EVA3637","08EVA3637_21",2021-09-16 15:45:00,1.89468503937008
"762","07LMS103591","07LMS103591_21",2021-09-16 16:30:00,4.16197975253093
"763","07SFS011475","07SFS011475_21",2021-09-16 17:00:00,8.75984251968504
"764","08LIT2781","08LIT2781_21",2021-09-16 18:00:00,3.83858267716535
"765","08BEA3571","08BEA3571_21",2021-09-16 18:30:00,4.6259842519685
"766","07LMS026663","07LMS026663_21",2021-09-16 19:15:00,7.18503937007874
"767","07SFS011059","07SFS011059_21",2021-09-16 20:00:00,6.44685039370079
"768","07LMS093027","07LMS093027_21",2021-09-16 20:30:00,6.88976377952756
"769","08LIT2603","08LIT2603_21",2021-09-16 20:30:00,5.41338582677165
"770","08EAS1536","08EAS1536_21",2021-09-20 16:00:00,1.94389763779528
"771","WalkerPreserve","WalkerPreserve_21",2021-09-20 16:15:00,4.47834645669291
"772","08EAS2272","08EAS2272_21",2021-09-20 18:00:00,5.95472440944882
"773","09BLA0722","09BLA0722_21",2021-09-20 18:00:00,3.74015748031496
"774","08EAS1964","08EAS1964_21",2021-09-20 20:30:00,4.18307086614173
"775","09BLA0756","09BLA0756_21",2021-09-20 20:30:00,2.04232283464567
"776","08LAK3628","08LAK3628_21",2021-09-21 16:00:00,2.26377952755906
"777","09MID1374","09MID1374_21",2021-09-21 17:00:00,4.03543307086614
"778","08ISS4294","08ISS4294_21",2021-09-21 17:15:00,3.88779527559055
"779","09NEW2076","09NEW2076_21",2021-09-21 20:00:00,2.31299212598425
"780","08LAK3879","08LAK3879_21",2021-09-21 20:45:00,3.24803149606299
"781","07RAG018227","07RAG018227_21",2021-09-22 17:00:00,4.03543307086614
"782","08BEA3321","08BEA3321_21",2021-09-22 18:00:00,5.26574803149606
"783","07RAG022147","07RAG022147_21",2021-09-22 21:15:00,1.27952755905512
"784","07RAG012515","07RAG012515_21",2021-09-22 21:30:00,5.61023622047244
"785","08LAK3880","08LAK3880_21",2021-09-23 16:00:00,2.90354330708661
"786","08EVA3640","08EVA3640_21",2021-09-23 16:30:00,3.64173228346457
"787","07CHR070059","07CHR070059_21",2021-09-23 16:45:00,3.83858267716535
"788","09BLA0817","09BLA0817_21",2021-09-23 19:00:00,1.74353205849269
"789","07HAR025863","07HAR025863_21",2021-09-23 19:45:00,4.03543307086614
"790","08SAM2865","08SAM2865_21",2021-09-23 19:45:00,4.23228346456693
"791","07GRN077319","07GRN077319_21",2021-09-23 21:35:00,4.13385826771654
"792","08WES1037","08WES1037_21",2021-09-28 21:40:00,2.01771653543307
"793","07PAT187623","07PAT187623_21",2021-09-29 15:45:00,9.74409448818898
"794","07TKL047047","07TKL047047_21",2021-09-29 16:00:00,5.21653543307087
"795","08NOR1750","08NOR1750_21",2021-09-29 16:20:00,5.85629921259843
"796","08NOR2306","08NOR2306_21",2021-09-29 19:00:00,6.54527559055118
"797","07RAG002867","07RAG002867_21",2021-09-29 19:30:00,2.95275590551181
"798","07LNT163403","07LNT163403_21",2021-09-29 20:00:00,2.55905511811024
"799","08LIT2682","08LIT2682_21",2021-09-29 21:40:00,5.06889763779528
"800","08NOR1362","08NOR1362_21",2021-10-04 17:15:00,5.63484251968504
"801","09COV1756","09COV1756_21",2021-10-04 20:20:00,3.0511811023622
"802","09LOW0325","09LOW0325_21",2021-10-04 22:15:00,2.46062992125984
"803","09COV1165","09COV1165_21",2021-10-04 22:45:00,5.85629921259843
"804","09MID2426","09MID2426_21",2021-10-05 16:30:00,2.01771653543307
"805","09COV1418","09COV1418_21",2021-10-05 19:15:00,2.28838582677165
"806","09DEE2294","09DEE2294_21",2021-10-06 15:05:00,6.98818897637795
"807","09LOW0751","09LOW0751_21",2021-10-06 18:00:00,2.36220472440945
"808","09SOO1130","09SOO1130_21",2021-10-06 20:30:00,5.06889763779528
"809","09SOO1209","09SOO1209_21",2021-10-07 14:30:00,6.2992125984252
"810","09DEE2208","09DEE2208_21",2021-10-07 16:20:00,4.6751968503937
"811","09SOO1283","09SOO1283_21",2021-10-07 16:30:00,3.59251968503937
"812","09BLA0768","09BLA0768_21",2021-10-07 17:15:00,3.0511811023622
"813","09DEE2163","09DEE2163_21",2021-10-07 18:15:00,3.39566929133858
