"","SiteName","SampleName","SampleDate","US + RB + LB + DS"
"1","08WES0622","08WES0622_17",2017-07-25 08:30:00,56
"2","08WES0905","08WES0905_17",2017-07-25 10:35:00,67.75
"3","08WES0903","08WES0903_17",2017-07-25 13:29:59,56.6666666666667
"4","09NEW2102","09NEW2102_17",2017-07-26 08:59:59,61.25
"5","08EVA3637","08EVA3637_17",2017-07-26 10:29:59,68
"6","08BEA3474","08BEA3474_17",2017-07-27 10:29:59,13.5
"7","08WES1178","08WES1178_17",2017-07-27 11:00:00,60.6666666666667
"8","08WES0629","08WES0629_17",2017-07-27 13:15:00,51.75
"9","08CED5046","08CED5046_17",2017-07-31 09:15:00,60.3333333333333
"10","08LIT2585","08LIT2585_17",2017-07-31 10:45:00,47
"11","08CED5032","08CED5032_17",2017-07-31 11:45:00,54.3333333333333
"12","08CED4975","08CED4975_17",2017-07-31 14:00:00,56.6666666666667
"13","08LIT2682","08LIT2682_17",2017-07-31 14:30:00,37.75
"14","08LIT2781","08LIT2781_17",2017-08-01 10:15:00,63.6666666666667
"15","09SOO1209","09SOO1209_17",2017-08-01 11:00:00,66
"16","08LIT2692","08LIT2692_17",2017-08-01 13:00:00,64.5
"17","09SOO1134","09SOO1134_17",2017-08-02 09:30:00,62.75
"18","09SOO1022","09SOO1022_17",2017-08-02 11:14:59,60
"19","08EAS2631","08EAS2631_17",2017-08-03 08:45:00,58.5
"20","VashShing","VashShing_17",2017-08-03 08:59:59,62.6666666666667
"21","09COV1864","09COV1864_17",2017-08-03 09:15:00,61.75
"22","08EAS2058","08EAS2058_17",2017-08-03 11:00:00,59.25
"23","28A","28A_17",2017-08-03 11:00:00,53.25
"24","09COV1165","09COV1165_17",2017-08-03 12:30:00,49.75
"25","07RAG002867","07RAG002867_17",2017-08-06 23:59:59,50.25
"26","07RAG043443","07RAG043443_17",2017-08-06 23:59:59,42
"27","07RAG004615","07RAG004615_17",2017-08-07 08:59:59,52
"28","09MID1958","09MID1958_17",2017-08-07 13:29:59,54.6666666666667
"29","07PAT001415","07PAT001415_17",2017-08-07 13:45:00,63
"30","07HAR070087","07HAR070087_17",2017-08-08 10:29:59,58.6666666666667
"31","08NOR1370","08NOR1370_17",2017-08-08 11:30:00,42.75
"32","09SOO0943","09SOO0943_17",2017-08-08 11:59:59,37.6666666666667
"33","08NOR1362","08NOR1362_17",2017-08-08 12:44:59,45.6666666666667
"34","07TKL072439","07TKL072439_17",2017-08-09 09:15:00,60.3333333333333
"35","08ISS4730","08ISS4730_17",2017-08-09 10:00:00,62.3333333333333
"36","08CED4192","08CED4192_17",2017-08-10 09:44:59,59
"37","08NOR1750","08NOR1750_17",2017-08-10 10:45:00,49.6666666666667
"38","08CED2898","08CED2898_17",2017-08-10 12:15:00,61.3333333333333
"39","08NOR1756","08NOR1756_17",2017-08-10 12:44:59,60.75
"40","07STL080295","07STL080295_17",2017-08-10 14:00:00,20.6666666666667
"41","08CED2518","08CED2518_17",2017-08-10 14:00:00,66.5
"42","08EAS2546","08EAS2546_17",2017-08-14 10:00:00,66
"43","07LMS026663","07LMS026663_17",2017-08-14 10:15:00,5
"44","08EAS2272","08EAS2272_17",2017-08-14 12:15:00,61
"45","07TKL047047","07TKL047047_17",2017-08-14 13:15:00,51.6666666666667
"46","07LMS033235","07LMS033235_17",2017-08-14 14:14:59,47
"47","07PAT231079","07PAT231079_17",2017-08-15 08:59:59,67.25
"48","08ISS3958","08ISS3958_17",2017-08-15 09:44:59,67.6666666666667
"49","08LAK3699","08LAK3699_17",2017-08-15 11:59:59,62.5
"50","08EAS2446","08EAS2446_17",2017-08-15 12:44:59,54.5
"51","08LAK3879","08LAK3879_17",2017-08-15 13:45:00,53.75
"52","09DEE2163","09DEE2163_17",2017-08-16 09:30:00,61.6666666666667
"53","09MID2426","09MID2426_17",2017-08-16 09:30:00,60.5
"54","09MID1817","09MID1817_17",2017-08-16 11:59:59,62
"55","09DEE2294","09DEE2294_17",2017-08-16 12:44:59,54.3333333333333
"56","07LNT130827","07LNT130827_17",2017-08-16 13:00:00,2.5
"57","09LOW0751","09LOW0751_17",2017-08-17 01:15:00,63.75
"58","07HAR025863","07HAR025863_17",2017-08-17 09:30:00,53
"59","09COV1418","09COV1418_17",2017-08-17 10:15:00,45
"60","09DEE2211","09DEE2211_17",2017-08-18 09:30:00,63
"61","08NOR2306","08NOR2306_17",2017-08-20 23:59:59,22
"62","08NOR2115","08NOR2115_17",2017-08-21 08:14:59,60.25
"63","08EAS1536","08EAS1536_17",2017-08-21 08:59:59,62.75
"64","08EAS2191","08EAS2191_17",2017-08-21 11:45:00,63.5
"65","08BEA3321","08BEA3321_17",2017-08-21 13:29:59,58.5
"66","08SAM0000","08SAM0000_17",2017-08-21 13:45:00,67.25
"67","07RAG022147","07RAG022147_17",2017-08-22 08:59:59,55.25
"68","07CHR070059","07CHR070059_17",2017-08-22 09:30:00,57.6666666666667
"69","08BEA3826","08BEA3826_17",2017-08-22 09:30:00,62
"70","07RAG042787","07RAG042787_17",2017-08-22 11:14:59,51.3333333333333
"71","07CHR045515","07CHR045515_17",2017-08-22 11:59:59,43.75
"72","08BEA3914","08BEA3914_17",2017-08-22 13:00:00,62.5
"73","07STL184007","07STL184007_17",2017-08-23 08:59:59,16
"74","09BLA0675","09BLA0675_17",2017-08-23 09:15:00,47.3333333333333
"75","08BEA3312","08BEA3312_17",2017-08-23 10:29:59,62
"76","07SFS011059","07SFS011059_17",2017-08-23 11:14:59,8
"77","09BLA0716","09BLA0716_17",2017-08-23 11:14:59,60
"78","08EVA3813","08EVA3813_17",2017-08-23 11:45:00,67.6666666666667
"79","08SAM3045","08SAM3045_17",2017-08-23 13:00:00,62.25
"80","07SFS041891","07SFS041891_17",2017-08-23 13:29:59,21.3333333333333
"81","09BLA0756","09BLA0756_17",2017-08-23 13:45:00,57.75
"82","08SAM2862","08SAM2862_17",2017-08-24 09:15:00,58.5
"83","07SFS066611","07SFS066611_17",2017-08-24 10:15:00,56
"84","09MID1537","09MID1537_17",2017-08-24 11:30:00,50
"85","07SFS011475","07SFS011475_17",2017-08-24 11:45:00,13.3333333333333
"86","08SAM2865","08SAM2865_17",2017-08-24 11:59:59,59.3333333333333
"87","09MID1374","09MID1374_17",2017-08-24 13:29:59,66.75
"88","07RAG018227","07RAG018227_17",2017-08-24 14:30:00,38.3333333333333
"89","08CED2433","08CED2433_17",2017-08-28 08:30:00,67
"90","09LOW0753","09LOW0753_17",2017-08-28 09:30:00,65.6666666666667
"91","08LAK3540","08LAK3540_17",2017-08-28 11:45:00,59.25
"92","09LOW0325","09LOW0325_17",2017-08-28 12:15:00,46.25
"93","09BLA0817","09BLA0817_17",2017-08-28 14:30:00,62.75
"94","09BLA0772","09BLA0772_17",2017-08-29 09:15:00,63.3333333333333
"95","09DEE2208","09DEE2208_17",2017-08-29 09:15:00,36
"96","09NEW2076","09NEW2076_17",2017-08-29 11:59:59,55
"97","09DUW0225","09DUW0225_17",2017-08-31 13:00:00,66
"98","09DUW0277","09DUW0277_17",2017-08-31 14:30:00,65.3333333333333
"99","07LMS093027","07LMS093027_17",2017-09-05 09:15:00,1.33333333333333
"100","09DUW0091","09DUW0091_17",2017-09-05 14:14:59,65.3333333333333
"101","09NEW1657","09NEW1657_17",2017-09-07 09:30:00,54.25
"102","08EVA3640","08EVA3640_17",2017-09-07 10:00:00,67.75
"103","08EVA3642","08EVA3642_17",2017-09-07 11:59:59,57.3333333333333
"104","07GRN077319","07GRN077319_17",2017-09-08 13:15:00,58.5
"105","07GRN022903","07GRN022903_17",2017-09-11 11:30:00,40.75
"106","07SFS009443","07SFS009443_17",2017-09-11 13:45:00,9.66666666666667
"107","09MID1744","09MID1744_17",2017-09-12 09:30:00,51
"108","07LMS103591","07LMS103591_17",2017-09-12 10:00:00,64
"109","09BLA0722","09BLA0722_17",2017-09-12 10:29:59,63.75
"110","07LMS213875","07LMS213875_17",2017-09-12 11:45:00,1.33333333333333
"111","08WES1579","08WES1579_17",2017-09-12 12:44:59,62.25
"112","07LMS055075","07LMS055075_17",2017-09-12 13:00:00,63
"113","08SAM1914","08SAM1914_17",2017-09-14 08:45:00,61.6666666666667
"114","08WES1037","08WES1037_17",2017-09-17 23:59:59,66
"115","08BEA3737","08BEA3737_17",2017-09-18 00:44:59,60.5
"116","08SAM2674","08SAM2674_17",2017-09-18 09:15:00,59.3333333333333
"117","08WES1340","08WES1340_17",2017-09-18 09:44:59,62.75
"118","08BEA3650","08BEA3650_17",2017-09-18 11:00:00,53.6666666666667
"119","VashChris","VashChris_17",2017-09-20 14:59:59,67
"120","08LIT2603","08LIT2603_17",2017-09-20 23:59:59,63.6666666666667
"121","08CED2711","08CED2711_17",2017-09-21 10:15:00,58.3333333333333
"122","08LIT2602","08LIT2602_17",2017-09-21 11:14:59,62
"123","08LIT2685","08LIT2685_17",2017-09-24 23:59:59,17.25
"124","08LAK3628","08LAK3628_17",2017-09-25 09:15:00,61.75
"125","07LNT062039","07LNT062039_17",2017-09-27 10:29:59,24.6666666666667
"126","07LNT075179","07LNT075179_17",2017-09-27 13:15:00,52.25
"127","08LAK3880","08LAK3880_17",2017-09-28 14:00:00,65.3333333333333
"128","09NEW2128","09NEW2128_17",2017-10-07 12:15:00,65.3333333333333
"129","08ISS4294","08ISS4294_17",2017-10-10 09:44:59,48.25
"130","08ISS4724","08ISS4724_17",2017-10-26 14:14:59,42.75
"131","08ISS3877","08ISS3877_18",2018-07-25 16:30:00,38.6666666666667
"132","08LAK2827","08LAK2827_18",2018-07-26 17:00:00,43.6666666666667
"133","08ISS4735","08ISS4735_18",2018-07-27 16:15:00,57.6666666666667
"134","09BLA0772","09BLA0772_18",2018-07-30 16:18:00,64
"135","09BLA0771","09BLA0771_18",2018-07-30 18:37:00,62.3333333333333
"136","08EAS2540","08EAS2540_18",2018-07-31 15:30:00,67.6666666666667
"137","08CED2518","08CED2518_18",2018-08-01 16:00:00,63
"138","08ISS4573","08ISS4573_18",2018-08-01 16:00:00,67.6666666666667
"139","08LAK3879","08LAK3879_18",2018-08-01 16:40:00,61.6666666666667
"140","08ISS4748","08ISS4748_18",2018-08-01 18:26:00,58
"141","08CED2711","08CED2711_18",2018-08-01 18:45:00,66.3333333333333
"142","08ISS4294","08ISS4294_18",2018-08-01 20:24:00,63.6666666666667
"143","08CED2898","08CED2898_18",2018-08-01 21:30:00,67
"144","08ISS3962","08ISS3962_18",2018-08-01 21:43:00,30
"145","08WES1178","08WES1178_18",2018-08-02 16:43:00,66.6666666666667
"146","08WES0622","08WES0622_18",2018-08-02 16:50:00,65.3333333333333
"147","08WES0629","08WES0629_18",2018-08-02 19:30:00,63.3333333333333
"148","08WES0905","08WES0905_18",2018-08-02 20:52:00,61.3333333333333
"149","07LMS033235","07LMS033235_18",2018-08-06 18:45:00,49
"150","08BEA3826","08BEA3826_18",2018-08-06 18:45:00,65
"151","07LMS213875","07LMS213875_18",2018-08-06 20:56:00,6.33333333333333
"152","08BEA3914","08BEA3914_18",2018-08-06 21:30:00,61.6666666666667
"153","08LAK3540","08LAK3540_18",2018-08-07 16:30:00,67.3333333333333
"154","07HAR070087","07HAR070087_18",2018-08-07 16:45:00,60.6666666666667
"155","09BLA0722","09BLA0722_18",2018-08-07 17:39:00,65.6666666666667
"156","07STL080295","07STL080295_18",2018-08-07 19:55:00,29.3333333333333
"157","09BLA0675","09BLA0675_18",2018-08-07 20:20:00,66.3333333333333
"158","07RAG043443","07RAG043443_18",2018-08-08 16:30:00,37
"159","08SAM3045","08SAM3045_18",2018-08-08 17:00:00,66
"160","09BLA0817","09BLA0817_18",2018-08-08 17:00:00,59.6666666666667
"161","08SAM2862","08SAM2862_18",2018-08-08 19:00:00,65.3333333333333
"162","08LAK3699","08LAK3699_18",2018-08-08 19:35:00,64.3333333333333
"163","09BLA0716","09BLA0716_18",2018-08-09 16:09:00,62.6666666666667
"164","BSE_21_GolfCrs","BSE_21_GolfCrs_18",2018-08-09 17:00:00,54.6666666666667
"165","09LOW0753","09LOW0753_18",2018-08-09 19:32:00,68
"166","08EVA3637","08EVA3637_18",2018-08-13 15:32:00,67
"167","07LMS026663","07LMS026663_18",2018-08-13 15:38:00,0
"168","07LMS093027","07LMS093027_18",2018-08-13 19:36:00,0
"169","08EAS2631","08EAS2631_18",2018-08-14 15:21:00,54.3333333333333
"170","08EAS2446","08EAS2446_18",2018-08-14 15:50:00,58.6666666666667
"171","08EAS1964","08EAS1964_18",2018-08-14 18:27:00,61.3333333333333
"172","07GRN077319","07GRN077319_18",2018-08-14 18:30:00,57
"173","08LAK3121","08LAK3121_18",2018-08-14 20:00:00,65
"174","08EAS2058","08EAS2058_18",2018-08-14 21:00:00,63.3333333333333
"175","08WES0903","08WES0903_18",2018-08-14 21:20:00,59.3333333333333
"176","09DUW0225","09DUW0225_18",2018-08-15 15:56:00,64
"177","09NEW2102","09NEW2102_18",2018-08-15 16:45:00,64.6666666666667
"178","09LOW0325","09LOW0325_18",2018-08-15 18:10:00,67.3333333333333
"179","09BLA0768","09BLA0768_18",2018-08-15 21:05:00,56.6666666666667
"180","09SOO1134","09SOO1134_18",2018-08-16 17:00:00,64
"181","08SAM0000","08SAM0000_18",2018-08-17 16:12:00,66.6666666666667
"182","09DUW0277","09DUW0277_18",2018-08-20 20:00:00,65.6666666666667
"183","09SOO1209","09SOO1209_18",2018-08-21 17:00:00,62.6666666666667
"184","09SOO1283","09SOO1283_18",2018-08-21 18:20:00,61
"185","09NEW2151","09NEW2151_18",2018-08-23 16:00:00,62.6666666666667
"186","09DEE2211","09DEE2211_18",2018-08-23 16:40:00,43
"187","09SOO1130","09SOO1130_18",2018-08-23 17:10:00,43.3333333333333
"188","09MID2426","09MID2426_18",2018-08-23 17:40:00,64.6666666666667
"189","09NEW1657","09NEW1657_18",2018-08-23 18:50:00,54.6666666666667
"190","09JEN1357","09JEN1357_18",2018-08-23 19:00:00,60.3333333333333
"191","09MID1817","09MID1817_18",2018-08-23 20:20:00,67.6666666666667
"192","09JEN1318","09JEN1318_18",2018-08-23 20:30:00,52.6666666666667
"193","BSE_1_MudMtnRd","BSE_1_MudMtnRd_18",2018-08-23 21:45:00,21.3333333333333
"194","09MID1374","09MID1374_18",2018-08-23 22:00:00,65
"195","09MIL0340","09MIL0340_18",2018-08-24 15:15:00,65
"196","09MIL0390","09MIL0390_18",2018-08-24 17:40:00,62
"197","08ISS3958","08ISS3958_18",2018-08-27 15:15:00,68
"198","08ISS4730","08ISS4730_18",2018-08-27 17:15:00,61
"199","08SAM1914","08SAM1914_18",2018-08-27 18:30:00,67.6666666666667
"200","07RAG018227","07RAG018227_18",2018-08-27 20:30:00,50
"201","08SAM3047","08SAM3047_18",2018-08-27 21:00:00,65
"202","08SAM2865","08SAM2865_18",2018-08-28 15:45:00,62.6666666666667
"203","07HAR025863","07HAR025863_18",2018-08-28 17:15:00,61.3333333333333
"204","08BEA3312","08BEA3312_18",2018-08-28 20:10:00,66
"205","08WES1340","08WES1340_18",2018-08-28 21:00:00,65
"206","08CED2433","08CED2433_18",2018-08-29 15:47:00,68
"207","08ISS4884","08ISS4884_18",2018-08-29 16:30:00,68
"208","28A","28A_18",2018-08-29 17:20:00,61.3333333333333
"209","07SFS066611","07SFS066611_18",2018-08-29 17:35:00,66.6666666666667
"210","09BLA0756","09BLA0756_18",2018-08-29 19:00:00,66.3333333333333
"211","VashShing","VashShin_18",2018-08-29 19:19:00,61.6666666666667
"212","07PAT228627","07PAT228627_18",2018-08-29 19:50:00,58.6666666666667
"213","07LMS055075","07LMS055075_18",2018-08-29 20:51:00,57
"214","08EVA3642","08EVA3642_18",2018-08-30 15:13:00,63
"215","Miller_Cove","Miller_Cove_18",2018-08-30 16:00:00,54.3333333333333
"216","08CED4192","08CED4192_18",2018-08-30 16:40:00,57
"217","08EVA3640","08EVA3640_18",2018-08-30 17:05:00,67.6666666666667
"218","Miller_SWSSD","Miller_SWSSD_18",2018-08-30 18:00:00,66
"219","08EVA3813","08EVA3813_18",2018-08-30 20:40:00,66.3333333333333
"220","WalkerPreserve","WalkerPreserve_18",2018-08-30 21:00:00,68
"221","08CED5032","08CED5032_18",2018-08-30 21:36:00,61
"222","08EAS2272","08EAS2272_18",2018-08-31 19:50:00,58
"223","07PAT231079","07PAT231079_18",2018-09-05 15:45:00,67.6666666666667
"224","09DEE2208","09DEE2208_18",2018-09-06 16:10:00,55.6666666666667
"225","07GRN022903","07GRN022903_18",2018-09-06 16:38:00,51.6666666666667
"226","09MID1537","09MID1537_18",2018-09-06 18:50:00,66.6666666666667
"227","07PAT187623","07PAT187623_18",2018-09-06 19:08:00,46.3333333333333
"228","07RAG004615","07RAG004615_18",2018-09-06 20:52:00,41
"229","08SAM2855","08SAM2855_18",2018-09-10 16:00:00,67.6666666666667
"230","08LIT2585","08LIT2585_18",2018-09-10 17:50:00,57.3333333333333
"231","08LIT2682","08LIT2682_18",2018-09-10 20:45:00,37
"232","09COV1756","09COV1756_18",2018-09-11 18:45:00,54.3333333333333
"233","07RAG042787","07RAG042787_18",2018-09-12 16:50:00,43.6666666666667
"234","07SFS011059","07SFS011059_18",2018-09-12 20:45:00,3.33333333333333
"235","08ISS4724","08ISS4724_18",2018-09-12 21:00:00,56
"236","08NOR1370","08NOR1370_18",2018-09-13 15:19:00,40.3333333333333
"237","08NOR1362","08NOR1362_18",2018-09-13 17:50:00,48
"238","08NOR1750","08NOR1750_18",2018-09-13 20:15:00,62.3333333333333
"239","08NOR2306","08NOR2306_18",2018-09-13 21:06:00,38
"240","08LIT2781","08LIT2781_18",2018-09-17 15:30:00,64
"241","08CED5046","08CED5046_18",2018-09-17 16:32:00,60.3333333333333
"242","08EAS1536","08EAS1536_18",2018-09-17 21:00:00,68
"243","07TKL072439","07TKL072439_18",2018-09-17 21:22:00,66.6666666666667
"244","07SFS009443","07SFS009443_18",2018-09-18 17:00:00,5
"245","07SFS041891","07SFS041891_18",2018-09-18 17:23:00,13.3333333333333
"246","07SFS011475","07SFS011475_18",2018-09-18 19:30:00,10.6666666666667
"247","07LMS103591","07LMS103591_18",2018-09-18 21:15:00,64.6666666666667
"248","09DUW0091","09DUW0091_18",2018-09-19 15:40:00,61.6666666666667
"249","08BEA3737","08BEA3737_18",2018-09-19 16:30:00,65.3333333333333
"250","07LST069191","07LST069191_18",2018-09-19 17:11:00,56
"251","08BEA3650","08BEA3650_18",2018-09-19 17:55:00,46.3333333333333
"252","08BEA3321","08BEA3321_18",2018-09-19 19:56:00,56.6666666666667
"253","07LNT163403","07LNT163403_18",2018-09-19 20:48:00,63
"254","08WES1037","08WES1037_18",2018-09-19 21:30:00,68
"255","09COV1862","09COV1862_18",2018-09-20 07:00:00,68
"256","07LNT062039","07LNT062039_18",2018-09-20 17:30:00,38.3333333333333
"257","09COV1864","09COV1864_18",2018-09-20 19:18:00,62.3333333333333
"258","07LNT130827","07LNT130827_18",2018-09-20 21:30:00,0
"259","08SAM2674","08SAM2674_18",2018-09-21 16:45:00,57
"260","08EAS2191","08EAS2191_18",2018-09-24 15:35:00,64.3333333333333
"261","07PAT001415","07PAT001415_18",2018-09-24 16:21:00,61.3333333333333
"262","08EAS2546","08EAS2546_18",2018-09-24 17:40:00,68
"263","07PAT166087","07PAT166087_18",2018-09-24 17:50:00,59.3333333333333
"264","09SOO1022","09SOO1022_18",2018-09-24 20:29:00,52
"265","08LAK3627","08LAK3627_18",2018-09-25 16:15:00,67
"266","07CHR070059","07CHR070059_18",2018-09-25 17:12:00,61.6666666666667
"267","08LAK3628","08LAK3628_18",2018-09-25 17:50:00,65.6666666666667
"268","07CHR234411","07CHR234411_18",2018-09-25 21:15:00,55.6666666666667
"269","09SOO0943","09SOO0943_18",2018-09-25 21:30:00,50.3333333333333
"270","07STL184007","07STL184007_18",2018-09-26 16:30:00,13.6666666666667
"271","07CHR045515","07CHR045515_18",2018-09-26 19:45:00,45.3333333333333
"272","VashChris","VashChris_18",2018-09-26 21:50:00,65.6666666666667
"273","09NEW2128","09NEW2128_18",2018-09-27 15:55:00,68
"274","08BEA3747","08BEA3747_18",2018-09-27 16:24:00,33.6666666666667
"275","09COV1418","09COV1418_18",2018-09-27 18:30:00,47.3333333333333
"276","07LNT075179","07LNT075179_18",2018-09-28 18:30:00,54.6666666666667
"277","07RAG022147","07RAG022147_18",2018-10-01 16:30:00,68
"278","07RAG002867","07RAG002867_18",2018-10-01 20:15:00,55.6666666666667
"279","08LIT2685","08LIT2685_18",2018-10-02 16:00:00,40.3333333333333
"280","08NOR2115","08NOR2115_18",2018-10-02 18:05:00,66
"281","08WES1490","08WES1490_18",2018-10-02 18:20:00,67.3333333333333
"282","08WES1579","08WES1579_18",2018-10-02 20:30:00,65.3333333333333
"283","BSE_8_268hAveSE","BSE_8_268hAveSE_18",2018-10-03 15:34:00,3.66666666666667
"284","09LOW0751","09LOW0751_18",2018-10-04 15:15:00,63
"285","08LAK3880","08LAK3880_18",2018-10-04 18:40:00,68
"286","09MID1744","09MID1744_18",2018-10-05 19:00:00,65
"287","07TKL047047","07TKL047047_18",2018-10-08 16:40:00,61.6666666666667
"288","08BEA3312","08BEA3312_19",2019-06-16 16:13:00,66.6666666666667
"289","08ISS3877","08ISS3877_19",2019-07-15 16:00:00,43
"290","08BEA3737","08BEA3737_19",2019-07-16 19:30:00,65.3333333333333
"291","08BEA3474","08BEA3474_19",2019-07-17 15:11:00,17.6666666666667
"292","08LIT2682","08LIT2682_19",2019-07-17 18:30:00,25.3333333333333
"293","08EAS1536","08EAS1536_19",2019-07-18 15:10:00,61.6666666666667
"294","09COV1862","09COV1862_19",2019-07-18 15:30:00,66
"295","08ISS3962","08ISS3962_19",2019-07-18 16:50:00,50.3333333333333
"296","08WES1178","08WES1178_19",2019-07-18 18:10:00,62.3333333333333
"297","09COV1864","09COV1864_19",2019-07-18 18:56:00,65
"298","08WES0905","08WES0905_19",2019-07-18 21:30:00,65
"299","07PAT166087","07PAT166087_19",2019-07-22 16:37:00,60.3333333333333
"300","07TKL072439","07TKL072439_19",2019-07-22 18:35:00,65.6666666666667
"301","08ISS4748","08ISS4748_19",2019-07-22 19:50:00,67.3333333333333
"302","09DUW0225","09DUW0225_19",2019-07-23 15:45:00,63.3333333333333
"303","08CED4192","08CED4192_19",2019-07-23 16:00:00,62.3333333333333
"304","09DUW0091","09DUW0091_19",2019-07-23 19:30:00,63
"305","08ISS4735","08ISS4735_19",2019-07-23 20:00:00,65.6666666666667
"306","08SAM2855","08SAM2855_19",2019-07-25 19:00:00,66
"307","07RAG004615","07RAG004615_19",2019-07-29 15:30:00,37.6666666666667
"308","08ISS4884","08ISS4884_19",2019-07-29 16:00:00,62.3333333333333
"309","07RAG018227","07RAG018227_19",2019-07-29 18:30:00,50
"310","08ISS4294","08ISS4294_19",2019-07-29 18:45:00,64.6666666666667
"311","09MID1958","09MID1958_19",2019-07-29 20:45:00,63.3333333333333
"312","08ISS4730","08ISS4730_19",2019-07-29 22:00:00,64.6666666666667
"313","08CED5032","08CED5032_19",2019-07-31 16:00:00,62.6666666666667
"314","08CED4975","08CED4975_19",2019-07-31 17:30:00,62.3333333333333
"315","08CED5046","08CED5046_19",2019-07-31 20:00:00,64
"316","08CED2898","08CED2898_19",2019-08-01 15:12:00,67.6666666666667
"317","07SFS066611","07SFS066611_19",2019-08-01 16:15:00,65.3333333333333
"318","08CED2518","08CED2518_19",2019-08-01 17:30:00,66.6666666666667
"319","07LMS055075","07LMS055075_19",2019-08-01 19:30:00,63.6666666666667
"320","08CED2711","08CED2711_19",2019-08-01 20:45:00,67.6666666666667
"321","08LIT2781","08LIT2781_19",2019-08-05 15:45:00,56.6666666666667
"322","08NOR2306","08NOR2306_19",2019-08-05 19:00:00,31.6666666666667
"323","08EVA3642","08EVA3642_19",2019-08-06 07:00:00,67.3333333333333
"324","08SAM2674","08SAM2674_19",2019-08-06 16:45:00,57.6666666666667
"325","08BEA3650","08BEA3650_19",2019-08-06 17:30:00,64
"326","08BEA3826","08BEA3826_19",2019-08-06 17:40:00,64.6666666666667
"327","08BEA3914","08BEA3914_19",2019-08-06 19:25:00,67.6666666666667
"328","08NOR1362","08NOR1362_19",2019-08-06 19:40:00,46
"329","08LAK3121","08LAK3121_19",2019-08-06 20:17:00,67
"330","07RAG002867","07RAG002867_19",2019-08-07 15:45:00,60
"331","09MID1374","09MID1374_19",2019-08-07 16:00:00,58
"332","07RAG043443","07RAG043443_19",2019-08-07 18:45:00,26.3333333333333
"333","09NEW1657","09NEW1657_19",2019-08-07 20:00:00,54.3333333333333
"334","08EVA3637","08EVA3637_19",2019-08-08 16:00:00,66.3333333333333
"335","07CHR045515","07CHR045515_19",2019-08-08 16:30:00,48.3333333333333
"336","08LAK3879","08LAK3879_19",2019-08-12 15:15:00,65.6666666666667
"337","07TKL047047","07TKL047047_19",2019-08-12 15:30:00,60.6666666666667
"338","07PAT001415","07PAT001415_19",2019-08-12 18:30:00,65
"339","09DUW0277","09DUW0277_19",2019-08-12 19:20:00,64.3333333333333
"340","09MID1817","09MID1817_19",2019-08-13 15:45:00,67.3333333333333
"341","09COV1756","09COV1756_19",2019-08-13 19:47:00,56
"342","07LMS033235","07LMS033235_19",2019-08-14 16:05:00,58.6666666666667
"343","07RAG022147","07RAG022147_19",2019-08-14 17:15:00,68
"344","09SOO1134","09SOO1134_19",2019-08-15 15:15:00,49.3333333333333
"345","09SOO1130","09SOO1130_19",2019-08-15 19:00:00,27.3333333333333
"346","08BEA3747","08BEA3747_19",2019-08-19 15:45:00,56
"347","09DEE2211","09DEE2211_19",2019-08-19 16:20:00,34
"348","08BEA3571","08BEA3571_19",2019-08-19 18:45:00,65.6666666666667
"349","08NOR1750","08NOR1750_19",2019-08-19 21:15:00,62.3333333333333
"350","07HAR025863","07HAR025863_19",2019-08-20 15:54:00,68
"351","08EAS2546","08EAS2546_19",2019-08-20 17:45:00,62.3333333333333
"352","07GRN022903","07GRN022903_19",2019-08-20 18:39:00,58
"353","08EAS1964","08EAS1964_19",2019-08-20 21:00:00,65.3333333333333
"354","08LAK3628","08LAK3628_19",2019-08-22 15:15:00,59.3333333333333
"355","07STL080295","07STL080295_19",2019-08-22 17:30:00,27.3333333333333
"356","08NOR1370","08NOR1370_19",2019-08-22 19:30:00,25.3333333333333
"357","07CHR234411","07CHR234411_19",2019-08-22 21:15:00,48
"358","WalkerPreserve","WalkerPreserve_19",2019-08-26 15:15:00,65.6666666666667
"359","Miller_SWSSD","Miller_SWSSD_19",2019-08-26 15:20:00,64.3333333333333
"360","Miller_Cove","Miller_Cove_19",2019-08-26 17:00:00,66
"361","08WES1340","08WES1340_19",2019-08-26 18:15:00,65
"362","08SAM2865","08SAM2865_19",2019-08-27 15:30:00,67.6666666666667
"363","07LNT163403","07LNT163403_19",2019-08-27 16:30:00,55.3333333333333
"364","07SFS041891","07SFS041891_19",2019-08-27 20:27:00,24.3333333333333
"365","07PAT187623","07PAT187623_19",2019-08-28 15:45:00,45.3333333333333
"366","08SAM3047","08SAM3047_19",2019-08-28 16:15:00,65
"367","07PAT231079","07PAT231079_19",2019-08-28 17:53:00,68
"368","09BLA0768","09BLA0768_19",2019-08-28 18:20:00,66.6666666666667
"369","08WES0622","08WES0622_19",2019-08-28 20:05:00,61.3333333333333
"370","09DEE2208","09DEE2208_19",2019-08-28 21:00:00,52.6666666666667
"371","08LAK3540","08LAK3540_19",2019-08-29 15:15:00,68
"372","08ISS3958","08ISS3958_19",2019-08-29 16:15:00,63.6666666666667
"373","08ISS4573","08ISS4573_19",2019-08-29 18:00:00,67.3333333333333
"374","07CHR070059","07CHR070059_19",2019-09-03 16:00:00,65.6666666666667
"375","07GRN077319","07GRN077319_19",2019-09-03 18:00:00,62.3333333333333
"376","09BLA0817","09BLA0817_19",2019-09-04 18:55:00,66.3333333333333
"377","08EAS2058","08EAS2058_19",2019-09-04 21:10:00,60.3333333333333
"378","09LOW0753","09LOW0753_19",2019-09-05 16:15:00,67.6666666666667
"379","07LMS026663","07LMS026663_19",2019-09-05 17:15:00,1.33333333333333
"380","09LOW0751","09LOW0751_19",2019-09-05 18:15:00,61.6666666666667
"381","07LMS103591","07LMS103591_19",2019-09-05 19:45:00,57
"382","09JEN1318","09JEN1318_19",2019-09-05 20:15:00,52.6666666666667
"383","08LAK3699","08LAK3699_19",2019-09-09 18:15:00,59.3333333333333
"384","09LOW0325","09LOW0325_19",2019-09-10 15:15:00,46.6666666666667
"385","BSE_21_GolfCrs","BSE_21_GolfCrs_19",2019-09-10 16:45:00,53.3333333333333
"386","09MIL0340","09MIL0340_19",2019-09-10 17:15:00,66.6666666666667
"387","08EVA3813","08EVA3813_19",2019-09-10 18:15:00,62
"388","09NEW2128","09NEW2128_19",2019-09-10 19:30:00,62.6666666666667
"389","08EAS2446","08EAS2446_19",2019-09-11 15:24:00,58
"390","08EAS2540","08EAS2540_19",2019-09-11 17:30:00,67.6666666666667
"391","09MID1744","09MID1744_19",2019-09-11 18:15:00,58.3333333333333
"392","08LAK2827","08LAK2827_19",2019-09-11 20:00:00,37.3333333333333
"393","07SFS011475","07SFS011475_19",2019-09-12 15:30:00,2.33333333333333
"394","09COV1165","09COV1165_19",2019-09-12 15:30:00,48.3333333333333
"395","07LMS093027","07LMS093027_19",2019-09-12 17:15:00,0
"396","07SFS011059","07SFS011059_19",2019-09-12 19:30:00,3.66666666666667
"397","08EVA3640","08EVA3640_19",2019-09-16 15:40:00,61.6666666666667
"398","08EAS2191","08EAS2191_19",2019-09-16 18:05:00,67.6666666666667
"399","08LIT2585","08LIT2585_19",2019-09-17 18:00:00,49
"400","08SAM2862","08SAM2862_19",2019-09-18 16:45:00,56.6666666666667
"401","08EAS2631","08EAS2631_19",2019-09-18 17:00:00,62
"402","08SAM3045","08SAM3045_19",2019-09-18 20:00:00,64.3333333333333
"403","08WES1037","08WES1037_19",2019-09-18 20:15:00,67.3333333333333
"404","08LAK3880","08LAK3880_19",2019-09-19 14:45:00,64.3333333333333
"405","07HAR070087","07HAR070087_19",2019-09-19 15:00:00,54.3333333333333
"406","09BLA0771","09BLA0771_19",2019-09-19 15:15:00,67.3333333333333
"407","09SOO1283","09SOO1283_19",2019-09-19 16:15:00,51
"408","09COV1418","09COV1418_19",2019-09-19 17:15:00,50.6666666666667
"409","07SFS009443","07SFS009443_19",2019-09-19 17:45:00,9.66666666666667
"410","09SOO1022","09SOO1022_19",2019-09-19 20:15:00,65
"411","08LAK3627","08LAK3627_19",2019-09-23 15:15:00,66.6666666666667
"412","08CED2433","08CED2433_19",2019-09-23 17:15:00,68
"413","08WES1490","08WES1490_19",2019-09-23 19:15:00,66.6666666666667
"414","09BLA0675","09BLA0675_19",2019-09-24 15:10:00,68
"415","09MIL0390","09MIL0390_19",2019-09-24 17:30:00,64.6666666666667
"416","08SAM0000","08SAM0000_19",2019-09-24 19:30:00,64.6666666666667
"417","09JEN1357","09JEN1357_19",2019-09-24 20:00:00,66.6666666666667
"418","07PAT228627","07PAT228627_19",2019-09-25 15:30:00,66.6666666666667
"419","08WES0629","08WES0629_19",2019-09-25 18:30:00,63.3333333333333
"420","09BLA0716","09BLA0716_19",2019-09-26 15:00:00,65.6666666666667
"421","09MID1537","09MID1537_19",2019-09-26 17:30:00,63.6666666666667
"422","09SOO1209","09SOO1209_19",2019-09-26 19:45:00,60.6666666666667
"423","VashShing","VashShin_19",2019-09-30 15:45:00,58
"424","09DEE2294","09DEE2294_19",2019-09-30 16:15:00,58.3333333333333
"425","VashChris","VashChris_19",2019-09-30 17:45:00,65.3333333333333
"426","28A","28A_19",2019-09-30 19:00:00,52
"427","09MID2426","09MID2426_19",2019-09-30 20:15:00,67.6666666666667
"428","08LIT2602","08LIT2602_19",2019-10-01 15:15:00,66.6666666666667
"429","08BEA3321","08BEA3321_19",2019-10-01 16:00:00,60.3333333333333
"430","08WES0903","08WES0903_19",2019-10-01 17:15:00,54
"431","08LIT2692","08LIT2692_19",2019-10-01 17:45:00,62.3333333333333
"432","08SAM1914","08SAM1914_19",2019-10-01 20:45:00,66
"433","07LNT075179","07LNT075179_19",2019-10-02 17:15:00,62.6666666666667
"434","09NEW2102","09NEW2102_19",2019-10-03 16:15:00,61.3333333333333
"435","08EAS2272","08EAS2272_19",2019-10-03 19:30:00,63.3333333333333
"436","09NEW2076","09NEW2076_19",2019-10-07 16:00:00,66
"437","08LIT2603","08LIT2603_19",2019-10-07 20:15:00,41.3333333333333
"438","08ISS4724","08ISS4724_19",2019-10-11 15:15:00,42.3333333333333
"439","08ISS3877","08ISS3877_20",2020-07-20 17:30:00,49
"440","08BEA3737","08BEA3737_20",2020-07-21 20:20:00,68
"441","09MIL0340","09MIL0340_20",2020-07-22 17:00:00,59.6666666666667
"442","09MIL0390","09MIL0390_20",2020-07-22 18:45:00,67.3333333333333
"443","09DUW0225","09DUW0225_20",2020-07-22 22:15:00,67.6666666666667
"444","09COV1165","09COV1165_20",2020-07-23 16:35:00,52
"445","09JEN1318","09JEN1318_20",2020-07-23 20:30:00,54.6666666666667
"446","09BLA0675","09BLA0675_20",2020-07-27 17:00:00,66.6666666666667
"447","08EAS2058","08EAS2058_20",2020-07-27 19:30:00,59.6666666666667
"448","09BLA0716","09BLA0716_20",2020-07-27 19:45:00,66
"449","09DUW0091","09DUW0091_20",2020-07-28 15:30:00,63
"450","08CED5046","08CED5046_20",2020-07-28 17:45:00,61.6666666666667
"451","08ISS4724","08ISS4724_20",2020-07-28 18:15:00,62
"452","09COV1756","09COV1756_20",2020-07-28 19:50:00,52
"453","08CED5032","08CED5032_20",2020-07-28 21:30:00,59
"454","08ISS4294","08ISS4294_20",2020-07-29 15:50:00,64.6666666666667
"455","07PAT231079","07PAT231079_20",2020-07-29 16:30:00,67
"456","09MID1374","09MID1374_20",2020-07-29 17:30:00,65.3333333333333
"457","09COV1418","09COV1418_20",2020-07-29 21:00:00,42.3333333333333
"458","08WES1178","08WES1178_20",2020-07-30 15:30:00,66.6666666666667
"459","09COV1862","09COV1862_20",2020-07-30 16:30:00,63.3333333333333
"460","08NOR1370","08NOR1370_20",2020-07-30 18:30:00,28
"461","08ISS4884","08ISS4884_20",2020-08-03 17:00:00,65
"462","09MID1817","09MID1817_20",2020-08-03 18:15:00,65.3333333333333
"463","08ISS4748","08ISS4748_20",2020-08-03 20:00:00,66.6666666666667
"464","09COV1864","09COV1864_20",2020-08-03 21:00:00,65.6666666666667
"465","08ISS3962","08ISS3962_20",2020-08-03 22:20:00,44.3333333333333
"466","08EVA3640","08EVA3640_20",2020-08-04 16:00:00,66.6666666666667
"467","09SOO1134","09SOO1134_20",2020-08-04 16:00:00,64.6666666666667
"468","07HAR025863","07HAR025863_20",2020-08-05 16:40:00,66.6666666666667
"469","08CED2898","08CED2898_20",2020-08-05 16:50:00,68
"470","09LOW0753","09LOW0753_20",2020-08-05 19:10:00,65.3333333333333
"471","08CED4192","08CED4192_20",2020-08-05 19:30:00,57.6666666666667
"472","08CED2518","08CED2518_20",2020-08-05 23:10:00,68
"473","09DEE2211","09DEE2211_20",2020-08-06 16:35:00,29
"474","08LAK3879","08LAK3879_20",2020-08-06 17:15:00,65.6666666666667
"475","09DEE2208","09DEE2208_20",2020-08-06 19:00:00,66
"476","08WES0622","08WES0622_20",2020-08-06 19:01:00,61
"477","08WES0629","08WES0629_20",2020-08-06 20:45:00,54.6666666666667
"478","09NEW2102","09NEW2102_20",2020-08-06 21:45:00,63.6666666666667
"479","07PAT166087","07PAT166087_20",2020-08-10 17:15:00,63.3333333333333
"480","08BEA3650","08BEA3650_20",2020-08-10 17:45:00,54
"481","07PAT187623","07PAT187623_20",2020-08-10 20:00:00,66.3333333333333
"482","09BLA0771","09BLA0771_20",2020-08-11 15:30:00,66.3333333333333
"483","08LIT2685","08LIT2685_20",2020-08-11 17:30:00,37
"484","09BLA0772","09BLA0772_20",2020-08-11 17:30:00,65.6666666666667
"485","08CED2711","08CED2711_20",2020-08-11 20:00:00,67.3333333333333
"486","08LIT2692","08LIT2692_20",2020-08-11 21:23:00,64.3333333333333
"487","08NOR1750","08NOR1750_20",2020-08-12 16:45:00,56.3333333333333
"488","07LMS033235","07LMS033235_20",2020-08-12 17:30:00,59
"489","07LMS213875","07LMS213875_20",2020-08-12 20:30:00,12
"490","08SAM2855","08SAM2855_20",2020-08-12 20:30:00,66.6666666666667
"491","08BEA3571","08BEA3571_20",2020-08-12 21:00:00,66
"492","08LAK3121","08LAK3121_20",2020-08-13 16:30:00,63
"493","09BLA0817","09BLA0817_20",2020-08-13 18:30:00,67.6666666666667
"494","08LAK2827","08LAK2827_20",2020-08-13 19:45:00,41
"495","07TKL072439","07TKL072439_20",2020-08-13 20:00:00,66.6666666666667
"496","08CED2433","08CED2433_20",2020-08-17 16:20:00,67.6666666666667
"497","09BLA0722","09BLA0722_20",2020-08-17 19:40:00,66.3333333333333
"498","09JEN1357","09JEN1357_20",2020-08-17 22:00:00,56.3333333333333
"499","08ISS4730","08ISS4730_20",2020-08-18 16:30:00,63.6666666666667
"500","08ISS4735","08ISS4735_20",2020-08-18 19:45:00,63.3333333333333
"501","08NOR2115","08NOR2115_20",2020-08-18 21:40:00,66.6666666666667
"502","08LAK3628","08LAK3628_20",2020-08-19 16:40:00,66
"503","09BLA0768","09BLA0768_20",2020-08-19 19:40:00,64.3333333333333
"504","08EAS1964","08EAS1964_20",2020-08-19 22:00:00,65.3333333333333
"505","08SAM2674","08SAM2674_20",2020-08-20 16:15:00,61
"506","08BEA3914","08BEA3914_20",2020-08-20 17:00:00,52.3333333333333
"507","08BEA3826","08BEA3826_20",2020-08-20 18:24:00,59
"508","08EAS2191","08EAS2191_20",2020-08-20 18:40:00,68
"509","08SAM3047","08SAM3047_20",2020-08-20 20:35:00,66
"510","08EVA3637","08EVA3637_20",2020-08-20 21:30:00,68
"511","08LIT2781","08LIT2781_20",2020-08-21 07:10:00,63.3333333333333
"512","08SAM1914","08SAM1914_20",2020-08-21 16:45:00,63.6666666666667
"513","07SFS066611","07SFS066611_20",2020-08-24 17:40:00,67.3333333333333
"514","09DEE2163","09DEE2163_20",2020-08-24 17:50:00,67
"515","09DUW0277","09DUW0277_20",2020-08-24 20:30:00,65.6666666666667
"516","07SFS009443","07SFS009443_20",2020-08-24 21:30:00,4
"517","09LOW0325","09LOW0325_20",2020-08-24 22:10:00,52.6666666666667
"518","07PAT001415","07PAT001415_20",2020-08-25 16:00:00,62.6666666666667
"519","08NOR2306","08NOR2306_20",2020-08-25 16:00:00,40.3333333333333
"520","08NOR1362","08NOR1362_20",2020-08-25 19:00:00,44.3333333333333
"521","07STL080295","07STL080295_20",2020-08-25 19:15:00,13
"522","08WES0905","08WES0905_20",2020-08-25 22:15:00,68
"523","07RAG002867","07RAG002867_20",2020-08-26 18:40:00,64
"524","07LNT130827","07LNT130827_20",2020-08-26 20:00:00,5.33333333333333
"525","Miller_Cove","Miller_Cove_20",2020-08-27 16:15:00,66.3333333333333
"526","07RAG012515","07RAG012515_20",2020-08-27 17:10:00,67.6666666666667
"527","Miller_SWSSD","Miller_SWSSD_20",2020-08-27 18:55:00,62.3333333333333
"528","08EVA3813","08EVA3813_20",2020-08-27 20:00:00,62.6666666666667
"529","08LIT2682","08LIT2682_20",2020-08-27 20:30:00,34.3333333333333
"530","WalkerPreserve","WalkerPreserve_20",2020-08-27 21:15:00,67
"531","08EAS1536","08EAS1536_20",2020-08-31 17:45:00,67.3333333333333
"532","BSE_1_MudMtnRd","BSE_1_MudMtnRd_20",2020-08-31 18:00:00,17
"533","BSE_8_268hAveSE","BSE_8_268hAveSE_20",2020-08-31 20:50:00,55
"534","08BEA3747","08BEA3747_20",2020-08-31 21:00:00,27
"535","08WES1579","08WES1579_20",2020-09-01 15:52:00,65.3333333333333
"536","07RAG004615","07RAG004615_20",2020-09-01 16:15:00,51.6666666666667
"537","08WES1490","08WES1490_20",2020-09-01 17:45:00,68
"538","07RAG018227","07RAG018227_20",2020-09-01 19:30:00,53
"539","08WES1340","08WES1340_20",2020-09-01 20:00:00,65.6666666666667
"540","08WES1037","08WES1037_20",2020-09-01 22:05:00,67.6666666666667
"541","08EVA3642","08EVA3642_20",2020-09-02 16:00:00,66.6666666666667
"542","08SAM2865","08SAM2865_20",2020-09-02 16:15:00,67.6666666666667
"543","07HAR070087","07HAR070087_20",2020-09-02 16:30:00,42.6666666666667
"544","09SOO1130","09SOO1130_20",2020-09-02 16:45:00,40
"545","BSE_21_GolfCrs","BSE_21_GolfCrs_20",2020-09-02 20:15:00,60
"546","07RAG022147","07RAG022147_20",2020-09-03 16:50:00,67.3333333333333
"547","08EAS2631","08EAS2631_20",2020-09-03 18:20:00,57.6666666666667
"548","07SFS041891","07SFS041891_20",2020-09-03 20:25:00,30
"549","08EAS2272","08EAS2272_20",2020-09-03 21:00:00,62.6666666666667
"550","08SAM0000","08SAM0000_20",2020-09-09 19:00:00,68
"551","07STL184007","07STL184007_20",2020-09-10 18:00:00,30
"552","08LAK3540","08LAK3540_20",2020-09-21 16:00:00,68
"553","08LIT2585","08LIT2585_20",2020-09-21 16:30:00,43.6666666666667
"554","07LMS055075","07LMS055075_20",2020-09-21 16:45:00,61.3333333333333
"555","08LAK3627","08LAK3627_20",2020-09-21 17:55:00,68
"556","08BEA3312","08BEA3312_20",2020-09-21 18:50:00,60.6666666666667
"557","07TKL047047","07TKL047047_20",2020-09-21 20:00:00,48.3333333333333
"558","08EAS2546","08EAS2546_20",2020-09-21 22:00:00,67.6666666666667
"559","08EAS2446","08EAS2446_20",2020-09-22 15:10:00,65.6666666666667
"560","07LMS103591","07LMS103591_20",2020-09-22 16:42:00,50.6666666666667
"561","07LNT062039","07LNT062039_20",2020-09-22 17:15:00,13.6666666666667
"562","08EAS2540","08EAS2540_20",2020-09-22 17:15:00,66.3333333333333
"563","07LMS026663","07LMS026663_20",2020-09-22 18:55:00,4
"564","09MID1537","09MID1537_20",2020-09-22 20:00:00,67
"565","07LNT075179","07LNT075179_20",2020-09-22 20:15:00,60.6666666666667
"566","07SFS011475","07SFS011475_20",2020-09-22 21:11:00,9.33333333333333
"567","VashShing","VashShin_20",2020-09-22 21:20:00,61
"568","08LIT2602","08LIT2602_20",2020-09-22 21:45:00,66.6666666666667
"569","07GRN022903","07GRN022903_20",2020-09-23 16:30:00,40.3333333333333
"570","09MID2426","09MID2426_20",2020-09-23 16:30:00,68
"571","07LNT163403","07LNT163403_20",2020-09-29 17:45:00,64
"572","09MID1958","09MID1958_20",2020-09-29 17:45:00,61.6666666666667
"573","07CHR070059","07CHR070059_20",2020-09-29 18:15:00,66.3333333333333
"574","09MID1744","09MID1744_20",2020-09-29 20:25:00,51
"575","07CHR045515","07CHR045515_20",2020-09-29 21:45:00,51.6666666666667
"576","08LIT2603","08LIT2603_20",2020-09-29 22:00:00,46
"577","07RAG043443","07RAG043443_20",2020-09-30 16:30:00,24
"578","09DEE2294","09DEE2294_20",2020-09-30 16:30:00,60.6666666666667
"579","08SAM2862","08SAM2862_20",2020-09-30 17:00:00,65.6666666666667
"580","09NEW2128","09NEW2128_20",2020-09-30 18:45:00,61.3333333333333
"581","07GRN077319","07GRN077319_20",2020-09-30 19:45:00,56
"582","08SAM3045","08SAM3045_20",2020-09-30 20:00:00,62.6666666666667
"583","08ISS4573","08ISS4573_20",2020-10-01 17:40:00,60.6666666666667
"584","09NEW1657","09NEW1657_20",2020-10-01 17:53:00,33
"585","09SOO1209","09SOO1209_20",2020-10-01 18:15:00,66
"586","09LOW0751","09LOW0751_20",2020-10-01 18:30:00,53.6666666666667
"587","08LAK3880","08LAK3880_20",2020-10-01 19:30:00,68
"588","09SOO1022","09SOO1022_20",2020-10-01 20:45:00,67.3333333333333
"589","09NEW2076","09NEW2076_20",2020-10-01 21:00:00,63
"590","07CHR234411","07CHR234411_20",2020-10-02 16:30:00,26.6666666666667
"591","28A","28A_20",2020-10-05 20:30:00,55
"592","VashChris","VashChris_20",2020-10-05 22:00:00,62.3333333333333
"593","09SOO1283","09SOO1283_20",2020-10-06 21:00:00,65.6666666666667
"594","07SFS011059","07SFS011059_20",2020-10-07 16:30:00,7
"595","07PAT228627","07PAT228627_20",2020-10-07 19:00:00,51
"596","07LMS093027","07LMS093027_20",2020-10-07 19:21:00,0
"597","08LAK3699","08LAK3699_20",2020-10-07 21:50:00,64
"598","08CED5046","08CED5046_21",2021-07-12 20:45:00,58
"599","08CED5032","08CED5032_21",2021-07-13 20:45:00,55
"600","08WES1178","08WES1178_21",2021-07-14 19:30:00,58
"601","08ISS4724","08ISS4724_21",2021-07-14 20:45:00,36.6666666666667
"602","08SAM1914","08SAM1914_21",2021-07-19 16:00:00,57.6666666666667
"603","09MIL0340","09MIL0340_21",2021-07-19 16:00:00,58
"604","08SAM2855","08SAM2855_21",2021-07-19 18:45:00,65
"605","09MIL0390","09MIL0390_21",2021-07-19 19:15:00,66.6666666666667
"606","08BEA3312","08BEA3312_21",2021-07-19 21:00:00,65.6666666666667
"607","09MID1817","09MID1817_21",2021-07-19 21:45:00,57.3333333333333
"608","07HAR070087","07HAR070087_21",2021-07-20 17:15:00,56.6666666666667
"609","07TKL072439","07TKL072439_21",2021-07-20 19:30:00,65.6666666666667
"610","08EVA3642","08EVA3642_21",2021-07-20 20:15:00,64.6666666666667
"611","07LMS055075","07LMS055075_21",2021-07-21 16:15:00,61.6666666666667
"612","07PAT231079","07PAT231079_21",2021-07-21 16:30:00,65
"613","08EAS2540","08EAS2540_21",2021-07-21 19:45:00,65.6666666666667
"614","08EAS2446","08EAS2446_21",2021-07-21 22:00:00,57.3333333333333
"615","09COV1862","09COV1862_21",2021-07-22 15:30:00,64.3333333333333
"616","08CED2898","08CED2898_21",2021-07-22 16:15:00,64
"617","08WES0622","08WES0622_21",2021-07-22 17:00:00,59.3333333333333
"618","08EAS2631","08EAS2631_21",2021-07-22 18:36:00,55.6666666666667
"619","09COV1864","09COV1864_21",2021-07-22 19:00:00,59.6666666666667
"620","08ISS4730","08ISS4730_21",2021-07-26 17:00:00,56
"621","07SFS066611","07SFS066611_21",2021-07-26 17:20:00,67
"622","08ISS4735","08ISS4735_21",2021-07-26 20:30:00,56.3333333333333
"623","08ISS4748","08ISS4748_21",2021-07-26 20:50:00,66.6666666666667
"624","08WES0905","08WES0905_21",2021-07-26 22:30:00,62
"625","08ISS3877","08ISS3877_21",2021-07-27 15:45:00,62
"626","09DUW0091","09DUW0091_21",2021-07-28 16:15:00,64.6666666666667
"627","ZAK","ZAK_21",2021-07-28 16:30:00,63.3333333333333
"628","09DEE2211","09DEE2211_21",2021-07-28 17:00:00,13.3333333333333
"629","09DUW0225","09DUW0225_21",2021-07-28 19:30:00,58.6666666666667
"630","09NEW2128","09NEW2128_21",2021-07-28 19:30:00,63
"631","08LAK3540","08LAK3540_21",2021-07-28 20:00:00,66.5
"632","09NEW2102","09NEW2102_21",2021-07-28 21:00:00,62.3333333333333
"633","08EAS2058","08EAS2058_21",2021-07-29 16:45:00,61.6666666666667
"634","08CED4192","08CED4192_21",2021-08-02 17:00:00,61.6666666666667
"635","09JEN1318","09JEN1318_21",2021-08-02 20:30:00,44.6666666666667
"636","09JEN1357","09JEN1357_21",2021-08-02 22:15:00,62
"637","08BEA3650","08BEA3650_21",2021-08-04 15:30:00,61.3333333333333
"638","08WES0903","08WES0903_21",2021-08-04 17:30:00,63.6666666666667
"639","09SOO1022","09SOO1022_21",2021-08-04 17:30:00,66.6666666666667
"640","08BEA3737","08BEA3737_21",2021-08-04 18:00:00,62
"641","09SOO1134","09SOO1134_21",2021-08-04 20:30:00,54.6666666666667
"642","08EAS2191","08EAS2191_21",2021-08-04 21:30:00,67
"643","07LMS033235","07LMS033235_21",2021-08-05 16:00:00,41.3333333333333
"644","09MID1958","09MID1958_21",2021-08-05 16:45:00,65.6666666666667
"645","09MID1744","09MID1744_21",2021-08-05 20:15:00,63.3333333333333
"646","08LAK2827","08LAK2827_21",2021-08-05 20:30:00,43.3333333333333
"647","07RAG004615","07RAG004615_21",2021-08-09 17:00:00,43.6666666666667
"648","08BEA3747","08BEA3747_21",2021-08-09 17:00:00,63.3333333333333
"649","07PAT166087","07PAT166087_21",2021-08-09 20:00:00,62
"650","08NOR1370","08NOR1370_21",2021-08-09 21:00:00,30.6666666666667
"651","08WES1490","08WES1490_21",2021-08-12 15:30:00,67.3333333333333
"652","09LOW0753","09LOW0753_21",2021-08-12 16:00:00,62.3333333333333
"653","07STL184007","07STL184007_21",2021-08-12 17:30:00,31
"654","08LIT2692","08LIT2692_21",2021-08-12 18:15:00,61
"655","08WES1579","08WES1579_21",2021-08-12 18:20:00,63.3333333333333
"656","09SOO0943","09SOO0943_21",2021-08-12 19:15:00,55.3333333333333
"657","08LIT2602","08LIT2602_21",2021-08-12 22:00:00,61.6666666666667
"658","07PAT228627","07PAT228627_21",2021-08-17 16:45:00,58.3333333333333
"659","07RAG043443","07RAG043443_21",2021-08-17 21:30:00,41.6666666666667
"660","09DUW0277","09DUW0277_21",2021-08-18 18:30:00,67.3333333333333
"661","08EAS2546","08EAS2546_21",2021-08-19 16:00:00,66
"662","08SAM0000","08SAM0000_21",2021-08-19 16:45:00,68
"663","08WES0629","08WES0629_21",2021-08-19 21:00:00,66.6666666666667
"664","07GRN022903","07GRN022903_21",2021-08-23 17:05:00,53
"665","07CHR045515","07CHR045515_21",2021-08-23 17:45:00,48.3333333333333
"666","07LNT062039","07LNT062039_21",2021-08-23 20:45:00,30.3333333333333
"667","07CHR234411","07CHR234411_21",2021-08-23 22:00:00,36.6666666666667
"668","08LAK3121","08LAK3121_21",2021-08-24 16:45:00,66.6666666666667
"669","07LNT075179","07LNT075179_21",2021-08-24 18:30:00,59.3333333333333
"670","08NOR2115","08NOR2115_21",2021-08-24 20:30:00,62.6666666666667
"671","08ISS3962","08ISS3962_21",2021-08-25 17:15:00,42.3333333333333
"672","07LNT130827","07LNT130827_21",2021-08-25 18:00:00,0
"673","08SAM2674","08SAM2674_21",2021-08-26 16:45:00,60.6666666666667
"674","08ISS4573","08ISS4573_21",2021-08-26 17:00:00,59.6666666666667
"675","08LAK3699","08LAK3699_21",2021-08-26 20:00:00,55
"676","08BEA3474","08BEA3474_21",2021-08-26 21:00:00,9.33333333333333
"677","08WES1340","08WES1340_21",2021-08-30 16:45:00,66
"678","08LIT2585","08LIT2585_21",2021-08-31 17:15:00,51.3333333333333
"679","08SAM2862","08SAM2862_21",2021-08-31 21:00:00,65.6666666666667
"680","BSE_1_MudMtnRd","BSE_1_MudMtnRd_21",2021-09-01 16:30:00,49
"681","BSE_8_268hAveSE","BSE_8_268hAveSE_21",2021-09-01 19:15:00,53.6666666666667
"682","BSE_21_GolfCrs","BSE_21_GolfCrs_21",2021-09-01 21:00:00,56.6666666666667
"683","07PAT001415","07PAT001415_21",2021-09-02 17:00:00,64.6666666666667
"684","08BEA3914","08BEA3914_21",2021-09-02 17:00:00,61.6666666666667
"685","07STL080295","07STL080295_21",2021-09-02 20:30:00,5.66666666666667
"686","08BEA3826","08BEA3826_21",2021-09-02 20:30:00,63.3333333333333
"687","07SFS041891","07SFS041891_21",2021-09-02 20:45:00,15.6666666666667
"688","08SAM3047","08SAM3047_21",2021-09-08 18:30:00,66.3333333333333
"689","08EVA3813","08EVA3813_21",2021-09-09 16:30:00,66
"690","08SAM3045","08SAM3045_21",2021-09-09 19:45:00,65.3333333333333
"691","VashShing","VashShin_21",2021-09-13 16:30:00,51.6666666666667
"692","09BLA0716","09BLA0716_21",2021-09-13 16:45:00,64.6666666666667
"693","07LMS213875","07LMS213875_21",2021-09-13 17:15:00,12
"694","28A","28A_21",2021-09-13 18:30:00,64
"695","09BLA0675","09BLA0675_21",2021-09-13 19:30:00,66.3333333333333
"696","VashChris","VashChris_21",2021-09-13 21:00:00,66.6666666666667
"697","07SFS009443","07SFS009443_21",2021-09-13 21:15:00,18.6666666666667
"698","09BLA0771","09BLA0771_21",2021-09-13 21:45:00,66.6666666666667
"699","08CED2433","08CED2433_21",2021-09-14 16:15:00,66
"700","Miller_Cove","Miller_Cove_21",2021-09-14 16:30:00,67
"701","08CED2518","08CED2518_21",2021-09-14 18:00:00,63.6666666666667
"702","Miller_SWSSD","Miller_SWSSD_21",2021-09-14 19:50:00,63.3333333333333
"703","08CED2711","08CED2711_21",2021-09-14 21:00:00,63
"704","09NEW1657","09NEW1657_21",2021-09-15 16:45:00,46.6666666666667
"705","09BLA0772","09BLA0772_21",2021-09-15 21:00:00,63.3333333333333
"706","08EVA3637","08EVA3637_21",2021-09-16 15:45:00,60
"707","07LMS103591","07LMS103591_21",2021-09-16 16:30:00,45.3333333333333
"708","07SFS011475","07SFS011475_21",2021-09-16 17:00:00,5
"709","08LIT2781","08LIT2781_21",2021-09-16 18:00:00,55
"710","08BEA3571","08BEA3571_21",2021-09-16 18:30:00,56
"711","07LMS026663","07LMS026663_21",2021-09-16 19:15:00,2.66666666666667
"712","07SFS011059","07SFS011059_21",2021-09-16 20:00:00,3.66666666666667
"713","07LMS093027","07LMS093027_21",2021-09-16 20:30:00,14.6666666666667
"714","08LIT2603","08LIT2603_21",2021-09-16 20:30:00,37.3333333333333
"715","08EAS1536","08EAS1536_21",2021-09-20 16:00:00,67.3333333333333
"716","WalkerPreserve","WalkerPreserve_21",2021-09-20 16:15:00,67.3333333333333
"717","08EAS2272","08EAS2272_21",2021-09-20 18:00:00,58.6666666666667
"718","09BLA0722","09BLA0722_21",2021-09-20 18:00:00,64.6666666666667
"719","08EAS1964","08EAS1964_21",2021-09-20 20:30:00,64.3333333333333
"720","09BLA0756","09BLA0756_21",2021-09-20 20:30:00,65.3333333333333
"721","08LAK3628","08LAK3628_21",2021-09-21 16:00:00,58.6666666666667
"722","09MID1374","09MID1374_21",2021-09-21 17:00:00,67
"723","08ISS4294","08ISS4294_21",2021-09-21 17:15:00,58.3333333333333
"724","09NEW2076","09NEW2076_21",2021-09-21 20:00:00,63.3333333333333
"725","08LAK3879","08LAK3879_21",2021-09-21 20:45:00,66
"726","07RAG018227","07RAG018227_21",2021-09-22 17:00:00,42
"727","08BEA3321","08BEA3321_21",2021-09-22 18:00:00,57.3333333333333
"728","07RAG022147","07RAG022147_21",2021-09-22 21:15:00,66.6666666666667
"729","07RAG012515","07RAG012515_21",2021-09-22 21:30:00,50
"730","08LAK3880","08LAK3880_21",2021-09-23 16:00:00,67.3333333333333
"731","08EVA3640","08EVA3640_21",2021-09-23 16:30:00,61.3333333333333
"732","07CHR070059","07CHR070059_21",2021-09-23 16:45:00,64.3333333333333
"733","09BLA0817","09BLA0817_21",2021-09-23 19:00:00,59.6666666666667
"734","07HAR025863","07HAR025863_21",2021-09-23 19:45:00,64
"735","08SAM2865","08SAM2865_21",2021-09-23 19:45:00,66.3333333333333
"736","07GRN077319","07GRN077319_21",2021-09-23 21:35:00,62.3333333333333
"737","08WES1037","08WES1037_21",2021-09-28 21:40:00,62.6666666666667
"738","07PAT187623","07PAT187623_21",2021-09-29 15:45:00,66.3333333333333
"739","07TKL047047","07TKL047047_21",2021-09-29 16:00:00,52.6666666666667
"740","08NOR1750","08NOR1750_21",2021-09-29 16:20:00,45
"741","08NOR2306","08NOR2306_21",2021-09-29 19:00:00,37.6666666666667
"742","07RAG002867","07RAG002867_21",2021-09-29 19:30:00,62
"743","07LNT163403","07LNT163403_21",2021-09-29 20:00:00,46.6666666666667
"744","08LIT2682","08LIT2682_21",2021-09-29 21:40:00,44.6666666666667
"745","08NOR1362","08NOR1362_21",2021-10-04 17:15:00,43.3333333333333
"746","09COV1756","09COV1756_21",2021-10-04 20:20:00,56
"747","09LOW0325","09LOW0325_21",2021-10-04 22:15:00,51.6666666666667
"748","09COV1165","09COV1165_21",2021-10-04 22:45:00,56.3333333333333
"749","09MID2426","09MID2426_21",2021-10-05 16:30:00,68
"750","09COV1418","09COV1418_21",2021-10-05 19:15:00,53
"751","09DEE2294","09DEE2294_21",2021-10-06 15:05:00,66.6666666666667
"752","09LOW0751","09LOW0751_21",2021-10-06 18:00:00,63
"753","09SOO1130","09SOO1130_21",2021-10-06 20:30:00,44.6666666666667
"754","09SOO1209","09SOO1209_21",2021-10-07 14:30:00,66.3333333333333
"755","09DEE2208","09DEE2208_21",2021-10-07 16:20:00,55
"756","09SOO1283","09SOO1283_21",2021-10-07 16:30:00,62
"757","09BLA0768","09BLA0768_21",2021-10-07 17:15:00,62.3333333333333
"758","09DEE2163","09DEE2163_21",2021-10-07 18:15:00,58
