"","SiteName","SampleName","SampleDate","RiffleFlowTime","ReachFlowDistance","speed"
"1","08ISS3877","08ISS3877_17",2017-07-19 10:15:00,4.86333333333333,10,2.05620287868403
"2","09MIL0390","09MIL0390_17",2017-07-20 02:00:00,5.47666666666667,7,1.27814972611077
"3","08EAS2540","08EAS2540_17",2017-07-20 09:15:00,7.56833333333333,4.6,0.607795639726932
"4","08ISS3962","08ISS3962_17",2017-07-20 09:15:00,3.25333333333333,10,3.07377049180328
"5","09MIL0340","09MIL0340_17",2017-07-20 11:30:00,2.77888888888889,3.66666666666667,1.31947221111555
"6","08ISS4748","08ISS4748_17",2017-07-20 13:15:00,3.49166666666667,6,1.71837708830549
"7","08LAK3121","08LAK3121_17",2017-07-20 13:29:59,3.79222222222222,3,0.791092880164079
"8","08BEA3747","08BEA3747_17",2017-07-24 09:44:59,4.25444444444444,6.66666666666667,1.56698876991382
"9","08BEA3571","08BEA3571_17",2017-07-24 12:15:00,3.44666666666667,10,2.90135396518375
"10","08WES0622","08WES0622_17",2017-07-25 08:30:00,6.93333333333333,10,1.44230769230769
"11","08WES0905","08WES0905_17",2017-07-25 10:35:00,4.33833333333333,5.75,1.32539377641183
"12","08WES0903","08WES0903_17",2017-07-25 13:29:59,5.81111111111111,10,1.7208413001912
"13","09BLA0768","09BLA0768_17",2017-07-26 08:45:00,4.05777777777778,9.33333333333333,2.30010952902519
"14","09NEW2102","09NEW2102_17",2017-07-26 08:59:59,4.16833333333333,7.5,1.79928028788485
"15","08EVA3637","08EVA3637_17",2017-07-26 10:29:59,2.83666666666667,4,1.41010575793184
"16","09COV1756","09COV1756_17",2017-07-26 11:59:59,8.24333333333333,10,1.21310149615851
"17","09BLA0771","09BLA0771_17",2017-07-26 13:00:00,5.09166666666667,4.075,0.800327332242226
"18","09COV1862","09COV1862_17",2017-07-26 14:00:00,2.41083333333333,3.25,1.34808157621846
"19","08SAM2855","08SAM2855_17",2017-07-27 09:30:00,3.29777777777778,3,0.909703504043127
"20","08BEA3474","08BEA3474_17",2017-07-27 10:29:59,4.13666666666667,10,2.4174053182917
"21","08WES1178","08WES1178_17",2017-07-27 11:00:00,5.44333333333333,4,0.734843845682792
"22","08SAM3047","08SAM3047_17",2017-07-27 11:59:59,3.42,4.66666666666667,1.364522417154
"23","08WES0629","08WES0629_17",2017-07-27 13:15:00,2.75666666666667,5,1.81378476420798
"24","09JEN1357","09JEN1357_17",2017-07-30 23:59:59,2.24,5,2.23214285714286
"25","08CED5046","08CED5046_17",2017-07-31 09:15:00,4.29333333333333,6.16666666666667,1.43633540372671
"26","08LIT2585","08LIT2585_17",2017-07-31 10:45:00,3.45583333333333,10,2.89365806607186
"27","09JEN1318","09JEN1318_17",2017-07-31 11:00:00,3.6,6,1.66666666666667
"28","08CED5032","08CED5032_17",2017-07-31 11:45:00,2.31111111111111,3.33333333333333,1.44230769230769
"29","08CED4975","08CED4975_17",2017-07-31 14:00:00,4.76444444444444,4.66666666666667,0.979477611940298
"30","08LIT2682","08LIT2682_17",2017-07-31 14:30:00,2.15666666666667,5,2.31839258114374
"31","08LAK2827","08LAK2827_17",2017-08-01 08:30:00,4.73888888888889,6,1.26611957796014
"32","08LIT2781","08LIT2781_17",2017-08-01 10:15:00,4.73,10,2.11416490486258
"33","08LAK3627","08LAK3627_17",2017-08-01 11:00:00,5.69,10,1.75746924428822
"34","09SOO1209","09SOO1209_17",2017-08-01 11:00:00,3.64833333333333,6,1.64458656920968
"35","08LIT2692","08LIT2692_17",2017-08-01 13:00:00,3.34,5,1.49700598802395
"36","08EAS1964","08EAS1964_17",2017-08-01 13:45:00,7.82666666666667,8,1.0221465076661
"37","09SOO1130","09SOO1130_17",2017-08-02 00:15:00,5.34555555555556,10,1.87071294949075
"38","08ISS4573","08ISS4573_17",2017-08-02 08:59:59,5.73166666666667,7.5,1.30851991858098
"39","09SOO1283","09SOO1283_17",2017-08-02 09:15:00,7.03444444444444,7.66666666666667,1.08987521718528
"40","09SOO1134","09SOO1134_17",2017-08-02 09:30:00,4.87166666666667,10,2.05268559698939
"41","09SOO1022","09SOO1022_17",2017-08-02 11:14:59,3.78545454545455,4.09090909090909,1.0806916426513
"42","08ISS4884","08ISS4884_17",2017-08-02 13:00:00,2.89666666666667,3.33333333333333,1.15074798619102
"43","08EAS2631","08EAS2631_17",2017-08-03 08:45:00,10.5533333333333,10,0.947567909033481
"44","VashShing","VashShing_17",2017-08-03 08:59:59,4.53555555555556,10,2.20480156785889
"45","09COV1864","09COV1864_17",2017-08-03 09:15:00,3.61,2.75,0.761772853185596
"46","08EAS2058","08EAS2058_17",2017-08-03 11:00:00,5.13833333333333,9,1.75154070710347
"47","28A","28A_17",2017-08-03 11:00:00,2.665,5,1.87617260787993
"48","09COV1165","09COV1165_17",2017-08-03 12:30:00,4.80666666666667,10,2.08044382801664
"49","07RAG002867","07RAG002867_17",2017-08-06 23:59:59,3.03083333333333,4.875,1.60846851800935
"50","07RAG043443","07RAG043443_17",2017-08-06 23:59:59,8.31363636363636,10,1.20284308365227
"51","07RAG004615","07RAG004615_17",2017-08-07 08:59:59,4.32666666666667,10,2.31124807395994
"52","09MID1958","09MID1958_17",2017-08-07 13:29:59,5.83666666666667,10,1.71330668189606
"53","07PAT001415","07PAT001415_17",2017-08-07 13:45:00,4.06,10,2.46305418719212
"54","07HAR070087","07HAR070087_17",2017-08-08 10:29:59,4.24333333333333,5.5,1.29615082482325
"55","08NOR1370","08NOR1370_17",2017-08-08 11:30:00,2.31666666666667,5,2.15827338129496
"56","09SOO0943","09SOO0943_17",2017-08-08 11:59:59,3.59333333333333,10,2.78293135435993
"57","08NOR1362","08NOR1362_17",2017-08-08 12:44:59,2.74333333333333,5,1.82260024301337
"58","07TKL072439","07TKL072439_17",2017-08-09 09:15:00,3.86222222222222,4.33333333333333,1.12197928653625
"59","08ISS4730","08ISS4730_17",2017-08-09 10:00:00,6.48666666666667,8.33333333333333,1.2846865364851
"60","08CED4192","08CED4192_17",2017-08-10 09:44:59,4.93777777777778,9.66666666666667,1.95769576957696
"61","08NOR1750","08NOR1750_17",2017-08-10 10:45:00,4.72888888888889,8.33333333333333,1.76221804511278
"62","08CED2898","08CED2898_17",2017-08-10 12:15:00,4.02666666666667,5,1.24172185430464
"63","08NOR1756","08NOR1756_17",2017-08-10 12:44:59,4.60416666666667,5.5,1.19457013574661
"64","07STL080295","07STL080295_17",2017-08-10 14:00:00,7.01,10,1.4265335235378
"65","08CED2518","08CED2518_17",2017-08-10 14:00:00,7.255,10,1.37835975189524
"66","08EAS2546","08EAS2546_17",2017-08-14 10:00:00,2.98,2,0.671140939597315
"67","07LMS026663","07LMS026663_17",2017-08-14 10:15:00,9.97333333333333,6,0.601604278074866
"68","08EAS2272","08EAS2272_17",2017-08-14 12:15:00,5.24333333333333,9.5,1.81182453909727
"69","07TKL047047","07TKL047047_17",2017-08-14 13:15:00,3.03333333333333,5,1.64835164835165
"70","07LMS033235","07LMS033235_17",2017-08-14 14:14:59,2.74833333333333,6,2.18314129775622
"71","07PAT231079","07PAT231079_17",2017-08-15 08:59:59,5.29,6,1.13421550094518
"72","08ISS3958","08ISS3958_17",2017-08-15 09:44:59,4.65666666666667,5,1.07372942018611
"73","08LAK3699","08LAK3699_17",2017-08-15 11:59:59,5.68666666666667,8,1.40679953106682
"74","08EAS2446","08EAS2446_17",2017-08-15 12:44:59,6.28666666666667,5.5,0.874867444326617
"75","08LAK3879","08LAK3879_17",2017-08-15 13:45:00,3.65833333333333,6.5,1.77676537585421
"76","09DEE2163","09DEE2163_17",2017-08-16 09:30:00,4.82,4,0.829875518672199
"77","09MID2426","09MID2426_17",2017-08-16 09:30:00,3.15833333333333,5,1.58311345646438
"78","09MID1817","09MID1817_17",2017-08-16 11:59:59,2.42666666666667,3,1.23626373626374
"79","09DEE2294","09DEE2294_17",2017-08-16 12:44:59,4.40555555555556,7.33333333333333,1.66456494325347
"80","07LNT130827","07LNT130827_17",2017-08-16 13:00:00,4.39333333333333,10,2.27617602427921
"81","09LOW0751","09LOW0751_17",2017-08-17 01:15:00,4.125,4.25,1.03030303030303
"82","07HAR025863","07HAR025863_17",2017-08-17 09:30:00,4.01888888888889,4,0.995299972352778
"83","09COV1418","09COV1418_17",2017-08-17 10:15:00,7.11333333333333,8,1.12464854732896
"84","09DEE2211","09DEE2211_17",2017-08-18 09:30:00,4.40888888888889,4.66666666666667,1.05846774193548
"85","08NOR2306","08NOR2306_17",2017-08-20 23:59:59,5.21166666666667,10,1.91877198592901
"86","08NOR2115","08NOR2115_17",2017-08-21 08:14:59,3.13,7.5,2.3961661341853
"87","08EAS1536","08EAS1536_17",2017-08-21 08:59:59,7.1475,6.875,0.961874781392095
"88","08EAS2191","08EAS2191_17",2017-08-21 11:45:00,3.575,4,1.11888111888112
"89","08BEA3321","08BEA3321_17",2017-08-21 13:29:59,2.49,5,2.00803212851406
"90","08SAM0000","08SAM0000_17",2017-08-21 13:45:00,5.33583333333333,7,1.31188505388099
"91","07RAG022147","07RAG022147_17",2017-08-22 08:59:59,2.28666666666667,2,0.87463556851312
"92","07CHR070059","07CHR070059_17",2017-08-22 09:30:00,4.23,5.33333333333333,1.26083530338849
"93","08BEA3826","08BEA3826_17",2017-08-22 09:30:00,4.44333333333333,2.5,0.562640660165041
"94","07RAG042787","07RAG042787_17",2017-08-22 11:14:59,2.77777777777778,5,1.8
"95","07CHR045515","07CHR045515_17",2017-08-22 11:59:59,5.12916666666667,5.75,1.12103980503656
"96","08BEA3914","08BEA3914_17",2017-08-22 13:00:00,3.65333333333333,4,1.09489051094891
"97","07STL184007","07STL184007_17",2017-08-23 08:59:59,6.11666666666667,10,1.63487738419619
"98","09BLA0675","09BLA0675_17",2017-08-23 09:15:00,7.06666666666667,10,1.41509433962264
"99","08BEA3312","08BEA3312_17",2017-08-23 10:29:59,5.56111111111111,6.66666666666667,1.1988011988012
"100","07SFS011059","07SFS011059_17",2017-08-23 11:14:59,2.56666666666667,10,3.8961038961039
"101","09BLA0716","09BLA0716_17",2017-08-23 11:14:59,4.63916666666667,5.25,1.13166876234956
"102","08EVA3813","08EVA3813_17",2017-08-23 11:45:00,4.69,10,2.13219616204691
"103","08SAM3045","08SAM3045_17",2017-08-23 13:00:00,2.94833333333333,3.5,1.18711136235161
"104","07SFS041891","07SFS041891_17",2017-08-23 13:29:59,4.89666666666667,10,2.04220558202859
"105","09BLA0756","09BLA0756_17",2017-08-23 13:45:00,4.955,5.25,1.05953582240161
"106","08SAM2862","08SAM2862_17",2017-08-24 09:15:00,3.8575,6.25,1.6202203499676
"107","07SFS066611","07SFS066611_17",2017-08-24 10:15:00,2.07666666666667,2,0.963081861958267
"108","09MID1537","09MID1537_17",2017-08-24 11:30:00,3.01666666666667,5,1.65745856353591
"109","07SFS011475","07SFS011475_17",2017-08-24 11:45:00,5.18666666666667,10,1.9280205655527
"110","08SAM2865","08SAM2865_17",2017-08-24 11:59:59,3.83333333333333,10,2.60869565217391
"111","09MID1374","09MID1374_17",2017-08-24 13:29:59,3.70333333333333,5.75,1.55265526552655
"112","07RAG018227","07RAG018227_17",2017-08-24 14:30:00,3.42333333333333,3.66666666666667,1.07108081791626
"113","08CED2433","08CED2433_17",2017-08-28 08:30:00,1.95222222222222,4,2.04894706886739
"114","09LOW0753","09LOW0753_17",2017-08-28 09:30:00,10.21,8,0.783545543584721
"115","08LAK3540","08LAK3540_17",2017-08-28 11:45:00,2.745,3.75,1.36612021857923
"116","09LOW0325","09LOW0325_17",2017-08-28 12:15:00,4.65583333333333,4.25,0.912833363164489
"117","09BLA0817","09BLA0817_17",2017-08-28 14:30:00,4.76666666666667,5.25,1.1013986013986
"118","09BLA0772","09BLA0772_17",2017-08-29 09:15:00,5.60777777777778,8.66666666666667,1.54547255795522
"119","09DEE2208","09DEE2208_17",2017-08-29 09:15:00,5.6125,10,1.78173719376392
"120","09NEW2076","09NEW2076_17",2017-08-29 11:59:59,2.39555555555556,3,1.25231910946197
"121","BSE_21_GolfCrs","BSE_21_GolfCrs_17",2017-08-30 09:15:00,4.385,7,1.5963511972634
"122","BSE_1_MudMtnRd","BSE_1_MudMtnRd_17",2017-08-30 11:14:59,5.36,10,1.86567164179104
"123","BSE_8_268hAveSE","BSE_8_268hAveSE_17",2017-08-30 13:45:00,3.87333333333333,10,2.58175559380379
"124","09DUW0225","09DUW0225_17",2017-08-31 13:00:00,2.83111111111111,3,1.0596546310832
"125","09DUW0277","09DUW0277_17",2017-08-31 14:30:00,5.33333333333333,10,1.875
"126","07LMS093027","07LMS093027_17",2017-09-05 09:15:00,8,10,1.25
"127","09DUW0091","09DUW0091_17",2017-09-05 14:14:59,3.16111111111111,3,0.949033391915642
"128","09NEW1657","09NEW1657_17",2017-09-07 09:30:00,5.57,8.66666666666667,1.55595451825254
"129","08EVA3640","08EVA3640_17",2017-09-07 10:00:00,3.25166666666667,6,1.84520758585341
"130","08EVA3642","08EVA3642_17",2017-09-07 11:59:59,1.41666666666667,2.66666666666667,1.88235294117647
"131","07GRN077319","07GRN077319_17",2017-09-08 13:15:00,5.86777777777778,8.33333333333333,1.4201855709146
"132","07GRN022903","07GRN022903_17",2017-09-11 11:30:00,4.60833333333333,6,1.30198915009042
"133","07SFS009443","07SFS009443_17",2017-09-11 13:45:00,4.17,10,2.39808153477218
"134","09MID1744","09MID1744_17",2017-09-12 09:30:00,2.71166666666667,4.25,1.56730178242163
"135","07LMS103591","07LMS103591_17",2017-09-12 10:00:00,3.33333333333333,5.5,1.65
"136","09BLA0722","09BLA0722_17",2017-09-12 10:29:59,3.64333333333333,4.5,1.23513266239707
"137","07LMS213875","07LMS213875_17",2017-09-12 11:45:00,8.01333333333333,10,1.24792013311148
"138","08WES1579","08WES1579_17",2017-09-12 12:44:59,4.2925,3.5,0.81537565521258
"139","07LMS055075","07LMS055075_17",2017-09-12 13:00:00,4.09083333333333,5.25,1.28335709920554
"140","Miller_Cove","Miller_Cove_17",2017-09-13 09:15:00,4.64,10,2.1551724137931
"141","WalkerPreserve","WalkerPreserve_17",2017-09-13 11:30:00,4.81333333333333,6,1.24653739612188
"142","Miller_SWSSD","Miller_SWSSD_17",2017-09-13 13:00:00,4.32083333333333,8.25,1.90935390549662
"143","08SAM1914","08SAM1914_17",2017-09-14 08:45:00,6.67,4.66666666666667,0.699650174912544
"144","08WES1037","08WES1037_17",2017-09-17 23:59:59,3.37666666666667,5,1.48075024679171
"145","08BEA3737","08BEA3737_17",2017-09-18 00:44:59,2.97083333333333,6.25,2.10378681626928
"146","08SAM2674","08SAM2674_17",2017-09-18 09:15:00,5.28333333333333,10,1.89274447949527
"147","08WES1340","08WES1340_17",2017-09-18 09:44:59,2.56083333333333,6,2.34298730881874
"148","08BEA3650","08BEA3650_17",2017-09-18 11:00:00,4.75666666666667,10,2.10231254379818
"149","VashChris","VashChris_17",2017-09-20 14:59:59,4.23333333333333,10,2.36220472440945
"150","08LIT2603","08LIT2603_17",2017-09-20 23:59:59,4.94777777777778,10,2.02110936447339
"151","08CED2711","08CED2711_17",2017-09-21 10:15:00,3.03,6,1.98019801980198
"152","08LIT2602","08LIT2602_17",2017-09-21 11:14:59,2.57444444444444,5,1.94216659473457
"153","08LIT2685","08LIT2685_17",2017-09-24 23:59:59,2.32,5,2.1551724137931
"154","08LAK3628","08LAK3628_17",2017-09-25 09:15:00,4.69666666666667,5,1.06458481192335
"155","07LNT062039","07LNT062039_17",2017-09-27 10:29:59,4.44888888888889,10,2.24775224775225
"156","07LNT075179","07LNT075179_17",2017-09-27 13:15:00,4.035,5.75,1.42503097893432
"157","08LAK3880","08LAK3880_17",2017-09-28 14:00:00,4.15333333333333,5,1.20385232744783
"158","09NEW2128","09NEW2128_17",2017-10-07 12:15:00,4.47666666666667,4.66666666666667,1.04244229337305
"159","08ISS4294","08ISS4294_17",2017-10-10 09:44:59,3.63666666666667,5.5,1.51237396883593
"160","08ISS4724","08ISS4724_17",2017-10-26 14:14:59,3.18333333333333,6,1.8848167539267
"1100","08ISS3877","08ISS3877_18",2018-07-25 16:30:00,2.59333333333333,9.84,3.79434447300771
"2100","08LAK2827","08LAK2827_18",2018-07-26 17:00:00,6.40666666666667,9.84,1.53590010405827
"3100","08ISS4735","08ISS4735_18",2018-07-27 16:15:00,11.4166666666667,6.56,0.574598540145985
"4100","09BLA0772","09BLA0772_18",2018-07-30 16:18:00,10.99,6.888,0.626751592356688
"5100","09BLA0771","09BLA0771_18",2018-07-30 18:37:00,6.45666666666667,4.92,0.762003097573567
"628","08EAS2540","08EAS2540_18",2018-07-31 15:30:00,10.7666666666667,6.56,0.609287925696594
"710","08CED2518","08CED2518_18",2018-08-01 16:00:00,4.72,8.2,1.73728813559322
"810","08ISS4573","08ISS4573_18",2018-08-01 16:00:00,4.96,4.592,0.925806451612903
"910","08LAK3879","08LAK3879_18",2018-08-01 16:40:00,6.43,9.84,1.5303265940902
"1010","08ISS4748","08ISS4748_18",2018-08-01 18:26:00,7.72,6.56,0.849740932642487
"1110","08CED2711","08CED2711_18",2018-08-01 18:45:00,5.77333333333333,8.2,1.4203233256351
"1210","08ISS4294","08ISS4294_18",2018-08-01 20:24:00,3.48,4.92,1.41379310344828
"1310","08CED2898","08CED2898_18",2018-08-01 21:30:00,2.87666666666667,5.904,2.05237543453071
"1410","08ISS3962","08ISS3962_18",2018-08-01 21:43:00,5.79333333333333,6.56,1.13233601841197
"1510","08WES1178","08WES1178_18",2018-08-02 16:43:00,7.04333333333333,4.92,0.698532891623284
"1610","08WES0622","08WES0622_18",2018-08-02 16:50:00,3.50333333333333,4.92,1.40437678401522
"1710","08WES0629","08WES0629_18",2018-08-02 19:30:00,3.41,6.56,1.92375366568915
"1810","08WES0905","08WES0905_18",2018-08-02 20:52:00,4.05666666666667,6.56,1.61709120788825
"1910","07LMS033235","07LMS033235_18",2018-08-06 18:45:00,3.7,8.2,2.21621621621622
"2010","08BEA3826","08BEA3826_18",2018-08-06 18:45:00,6.75333333333333,4.92,0.72852912142152
"2110","07LMS213875","07LMS213875_18",2018-08-06 20:56:00,4.38333333333333,6.56,1.49657794676806
"2210","08BEA3914","08BEA3914_18",2018-08-06 21:30:00,4.39333333333333,4.92,1.11987860394537
"2310","08LAK3540","08LAK3540_18",2018-08-07 16:30:00,5.90666666666667,9.84,1.66591422121896
"2410","07HAR070087","07HAR070087_18",2018-08-07 16:45:00,7.30333333333333,6.56,0.898219990871748
"2510","09BLA0722","09BLA0722_18",2018-08-07 17:39:00,6.25333333333333,6.56,1.04904051172708
"2610","07STL080295","07STL080295_18",2018-08-07 19:55:00,3.15666666666667,6.888,2.18204857444562
"2710","09BLA0675","09BLA0675_18",2018-08-07 20:20:00,4.11,6.56,1.59610705596107
"2810","07RAG043443","07RAG043443_18",2018-08-08 16:30:00,7.32666666666667,9.84,1.34303912647862
"2910","08SAM3045","08SAM3045_18",2018-08-08 17:00:00,4.80333333333333,9.84,2.04857737682165
"3010","09BLA0817","09BLA0817_18",2018-08-08 17:00:00,6.46666666666667,6.56,1.01443298969072
"3110","08SAM2862","08SAM2862_18",2018-08-08 19:00:00,6.69333333333333,9.84,1.47011952191235
"3210","08LAK3699","08LAK3699_18",2018-08-08 19:35:00,9.96,9.84,0.987951807228916
"3310","09BLA0716","09BLA0716_18",2018-08-09 16:09:00,6.01333333333333,7.544,1.25454545454545
"3410","BSE_21_GolfCrs","BSE_21_GolfCrs_18",2018-08-09 17:00:00,3.89666666666667,7.216,1.85183917878529
"3510","09LOW0753","09LOW0753_18",2018-08-09 19:32:00,5.9,4.92,0.833898305084746
"3610","08EVA3637","08EVA3637_18",2018-08-13 15:32:00,4.55666666666667,6.56,1.43964886613021
"3710","07LMS026663","07LMS026663_18",2018-08-13 15:38:00,5.29666666666667,14.76,2.78665827564506
"3810","07LMS093027","07LMS093027_18",2018-08-13 19:36:00,4.05666666666667,9.84,2.42563681183237
"3910","08EAS2631","08EAS2631_18",2018-08-14 15:21:00,6.33666666666667,6.56,1.035244608101
"4010","08EAS2446","08EAS2446_18",2018-08-14 15:50:00,8.4,6.56,0.780952380952381
"4110","08EAS1964","08EAS1964_18",2018-08-14 18:27:00,5.07,6.56,1.29388560157791
"4210","07GRN077319","07GRN077319_18",2018-08-14 18:30:00,5.61,9.84,1.75401069518717
"4310","08LAK3121","08LAK3121_18",2018-08-14 20:00:00,6.09666666666667,6.56,1.07599781301258
"4410","08EAS2058","08EAS2058_18",2018-08-14 21:00:00,3.04,6.56,2.15789473684211
"4510","08WES0903","08WES0903_18",2018-08-14 21:20:00,3.93,9.84,2.50381679389313
"4610","09DUW0225","09DUW0225_18",2018-08-15 15:56:00,4.09333333333333,4.92,1.20195439739414
"4710","09NEW2102","09NEW2102_18",2018-08-15 16:45:00,4.45,6.56,1.47415730337079
"4810","09LOW0325","09LOW0325_18",2018-08-15 18:10:00,7.68333333333333,6.56,0.853796095444685
"4910","09BLA0768","09BLA0768_18",2018-08-15 21:05:00,2.32,6.56,2.82758620689655
"5010","09SOO1134","09SOO1134_18",2018-08-16 17:00:00,17.4466666666667,32.8,1.88001528467711
"5110","08SAM0000","08SAM0000_18",2018-08-17 16:12:00,4.38666666666667,6.56,1.49544072948328
"5210","09DUW0277","09DUW0277_18",2018-08-20 20:00:00,3.50333333333333,6.888,1.96612749762131
"5310","09SOO1209","09SOO1209_18",2018-08-21 17:00:00,4.66,8.2,1.75965665236051
"5410","09SOO1283","09SOO1283_18",2018-08-21 18:20:00,5.67,9.84,1.73544973544974
"5510","09NEW2151","09NEW2151_18",2018-08-23 16:00:00,3.43333333333333,4.92,1.43300970873786
"5610","09DEE2211","09DEE2211_18",2018-08-23 16:40:00,8.38333333333333,6.56,0.782504970178926
"5710","09SOO1130","09SOO1130_18",2018-08-23 17:10:00,4.41666666666667,9.84,2.22792452830189
"5810","09MID2426","09MID2426_18",2018-08-23 17:40:00,3.49666666666667,4.92,1.40705433746425
"5910","09NEW1657","09NEW1657_18",2018-08-23 18:50:00,4.56333333333333,9.84,2.1563184806428
"6010","09JEN1357","09JEN1357_18",2018-08-23 19:00:00,2.42,9.84,4.06611570247934
"6110","09MID1817","09MID1817_18",2018-08-23 20:20:00,9.78666666666667,6.56,0.670299727520436
"629","09JEN1318","09JEN1318_18",2018-08-23 20:30:00,3.83666666666667,9.84,2.56472632493484
"631","BSE_1_MudMtnRd","BSE_1_MudMtnRd_18",2018-08-23 21:45:00,3.65666666666667,4.92,1.34548769371012
"641","09MID1374","09MID1374_18",2018-08-23 22:00:00,5.24333333333333,6.56,1.2511125238398
"651","09MIL0340","09MIL0340_18",2018-08-24 15:15:00,3.56333333333333,6.56,1.84097287184284
"661","09MIL0390","09MIL0390_18",2018-08-24 17:40:00,3.46666666666667,4.92,1.41923076923077
"671","08ISS3958","08ISS3958_18",2018-08-27 15:15:00,4.75,6.56,1.38105263157895
"681","08ISS4730","08ISS4730_18",2018-08-27 17:15:00,4.87666666666667,9.84,2.01777170198223
"691","08SAM1914","08SAM1914_18",2018-08-27 18:30:00,12.41,9.84,0.792908944399678
"701","07RAG018227","07RAG018227_18",2018-08-27 20:30:00,8.15333333333333,9.84,1.20686835650041
"711","08SAM3047","08SAM3047_18",2018-08-27 21:00:00,4.89,9.84,2.01226993865031
"721","08SAM2865","08SAM2865_18",2018-08-28 15:45:00,3.16,9.84,3.11392405063291
"731","07HAR025863","07HAR025863_18",2018-08-28 17:15:00,8.66,9.84,1.13625866050808
"741","08BEA3312","08BEA3312_18",2018-08-28 20:10:00,7.57,6.56,0.866578599735799
"751","08WES1340","08WES1340_18",2018-08-28 21:00:00,4.59,6.56,1.42919389978213
"761","08CED2433","08CED2433_18",2018-08-29 15:47:00,3.70666666666667,7.216,1.94676258992806
"771","08ISS4884","08ISS4884_18",2018-08-29 16:30:00,8.09666666666667,6.56,0.810209962947715
"781","28A","28A_18",2018-08-29 17:20:00,4.35,9.84,2.26206896551724
"791","07SFS066611","07SFS066611_18",2018-08-29 17:35:00,4.76,6.56,1.3781512605042
"801","09BLA0756","09BLA0756_18",2018-08-29 19:00:00,4.06333333333333,4.92,1.21082854799016
"811","VashShing","VashShin_18",2018-08-29 19:19:00,3.01666666666667,9.84,3.26187845303867
"821","07PAT228627","07PAT228627_18",2018-08-29 19:50:00,4.10333333333333,6.56,1.59870024370431
"831","07LMS055075","07LMS055075_18",2018-08-29 20:51:00,4.10666666666667,5.904,1.43766233766234
"841","08EVA3642","08EVA3642_18",2018-08-30 15:13:00,5.28333333333333,4.92,0.931230283911672
"851","Miller_Cove","Miller_Cove_18",2018-08-30 16:00:00,3.68666666666667,6.56,1.77938517179023
"861","08CED4192","08CED4192_18",2018-08-30 16:40:00,5.40333333333333,9.84,1.82109808760025
"871","08EVA3640","08EVA3640_18",2018-08-30 17:05:00,4.66666666666667,6.56,1.40571428571429
"881","Miller_SWSSD","Miller_SWSSD_18",2018-08-30 18:00:00,5.45333333333333,9.84,1.80440097799511
"891","08EVA3813","08EVA3813_18",2018-08-30 20:40:00,2.54666666666667,4.92,1.93193717277487
"901","WalkerPreserve","WalkerPreserve_18",2018-08-30 21:00:00,5.17333333333333,14.104,2.72628865979381
"911","08CED5032","08CED5032_18",2018-08-30 21:36:00,2.81333333333333,4.92,1.74881516587678
"921","08EAS2272","08EAS2272_18",2018-08-31 19:50:00,3.69666666666667,9.84,2.66185752930568
"931","07PAT231079","07PAT231079_18",2018-09-05 15:45:00,3.59333333333333,6.56,1.82560296846011
"941","09DEE2208","09DEE2208_18",2018-09-06 16:10:00,6.64666666666667,8.856,1.33239719157472
"951","07GRN022903","07GRN022903_18",2018-09-06 16:38:00,6.31666666666667,11.48,1.81741424802111
"961","09MID1537","09MID1537_18",2018-09-06 18:50:00,4.40333333333333,6.56,1.48978046934141
"971","07PAT187623","07PAT187623_18",2018-09-06 19:08:00,2.10666666666667,4.92,2.33544303797468
"981","07RAG004615","07RAG004615_18",2018-09-06 20:52:00,3.66333333333333,4.92,1.34303912647862
"991","08SAM2855","08SAM2855_18",2018-09-10 16:00:00,3.60333333333333,4.92,1.36540240518039
"1001","08LIT2585","08LIT2585_18",2018-09-10 17:50:00,3.37666666666667,9.84,2.91411648568608
"1011","08LIT2682","08LIT2682_18",2018-09-10 20:45:00,4.15666666666667,6.56,1.57818765036087
"1021","09COV1756","09COV1756_18",2018-09-11 18:45:00,6.32666666666667,9.84,1.55532139093783
"1031","07RAG042787","07RAG042787_18",2018-09-12 16:50:00,5.89666666666667,6.56,1.11249293386094
"1041","07SFS011059","07SFS011059_18",2018-09-12 20:45:00,7.5,9.84,1.312
"1051","08ISS4724","08ISS4724_18",2018-09-12 21:00:00,2.43666666666667,6.56,2.6922024623803
"1061","08NOR1370","08NOR1370_18",2018-09-13 15:19:00,4.78666666666667,6.56,1.37047353760446
"1071","08NOR1362","08NOR1362_18",2018-09-13 17:50:00,3.65333333333333,4.92,1.34671532846715
"1081","08NOR1750","08NOR1750_18",2018-09-13 20:15:00,3.89,9.84,2.52956298200514
"1091","08NOR2306","08NOR2306_18",2018-09-13 21:06:00,3.54,6.56,1.85310734463277
"1101","08LIT2781","08LIT2781_18",2018-09-17 15:30:00,3.09,4.92,1.59223300970874
"1111","08CED5046","08CED5046_18",2018-09-17 16:32:00,3.76,8.2,2.18085106382979
"1121","08EAS1536","08EAS1536_18",2018-09-17 21:00:00,3.57,4.92,1.3781512605042
"1131","07TKL072439","07TKL072439_18",2018-09-17 21:22:00,6.23,6.56,1.0529695024077
"1141","07SFS009443","07SFS009443_18",2018-09-18 17:00:00,3.7,9.84,2.65945945945946
"1151","07SFS041891","07SFS041891_18",2018-09-18 17:23:00,3.75,13.12,3.49866666666667
"1161","07SFS011475","07SFS011475_18",2018-09-18 19:30:00,3.62,9.84,2.71823204419889
"1171","07LMS103591","07LMS103591_18",2018-09-18 21:15:00,1.87666666666667,5.576,2.97122557726465
"1181","09DUW0091","09DUW0091_18",2018-09-19 15:40:00,5.01333333333333,4.92,0.981382978723404
"1191","08BEA3737","08BEA3737_18",2018-09-19 16:30:00,4.16,6.56,1.57692307692308
"1201","07LST069191","07LST069191_18",2018-09-19 17:11:00,3.41,3.28,0.961876832844575
"1211","08BEA3650","08BEA3650_18",2018-09-19 17:55:00,6.33333333333333,13.12,2.07157894736842
"1221","08BEA3321","08BEA3321_18",2018-09-19 19:56:00,4.23,9.84,2.32624113475177
"1231","07LNT163403","07LNT163403_18",2018-09-19 20:48:00,5.33666666666667,4.92,0.921923797626483
"1241","08WES1037","08WES1037_18",2018-09-19 21:30:00,6.69666666666667,6.56,0.979591836734694
"1251","09COV1862","09COV1862_18",2018-09-20 07:00:00,4.84666666666667,4.92,1.01513067400275
"1261","07LNT062039","07LNT062039_18",2018-09-20 17:30:00,5.55666666666667,8.2,1.47570485902819
"1271","09COV1864","09COV1864_18",2018-09-20 19:18:00,5.07333333333333,4.92,0.969776609724047
"1281","07LNT130827","07LNT130827_18",2018-09-20 21:30:00,2.58,4.92,1.90697674418605
"1291","08SAM2674","08SAM2674_18",2018-09-21 16:45:00,4.24333333333333,9.84,2.31893165750196
"1301","08EAS2191","08EAS2191_18",2018-09-24 15:35:00,4.45333333333333,5.576,1.25209580838323
"1311","07PAT001415","07PAT001415_18",2018-09-24 16:21:00,4.22,9.84,2.33175355450237
"1321","08EAS2546","08EAS2546_18",2018-09-24 17:40:00,3.10333333333333,4.92,1.58539205155746
"1331","07PAT166087","07PAT166087_18",2018-09-24 17:50:00,4.83666666666667,9.84,2.03445899379738
"1341","09SOO1022","09SOO1022_18",2018-09-24 20:29:00,6.73,9.84,1.46210995542348
"1351","08LAK3627","08LAK3627_18",2018-09-25 16:15:00,2.49333333333333,6.56,2.63101604278075
"1361","07CHR070059","07CHR070059_18",2018-09-25 17:12:00,29.83,26.24,0.879651357693597
"1371","08LAK3628","08LAK3628_18",2018-09-25 17:50:00,5.89666666666667,4.92,0.834369700395704
"1381","07CHR234411","07CHR234411_18",2018-09-25 21:15:00,11.5133333333333,13.12,1.13954834973943
"1391","09SOO0943","09SOO0943_18",2018-09-25 21:30:00,13.79,17.712,1.28440899202321
"1401","07STL184007","07STL184007_18",2018-09-26 16:30:00,2.91333333333333,4.92,1.68878718535469
"1411","07CHR045515","07CHR045515_18",2018-09-26 19:45:00,5.48,9.84,1.7956204379562
"1421","VashChris","VashChris_18",2018-09-26 21:50:00,7.95333333333333,8.2,1.03101424979044
"1431","09NEW2128","09NEW2128_18",2018-09-27 15:55:00,5.3,6.56,1.2377358490566
"1441","08BEA3747","08BEA3747_18",2018-09-27 16:24:00,4.44,13.12,2.95495495495495
"1451","09COV1418","09COV1418_18",2018-09-27 18:30:00,3.95666666666667,6.56,1.65796124684077
"1461","07LNT075179","07LNT075179_18",2018-09-28 18:30:00,5.18,6.56,1.26640926640927
"1471","07RAG022147","07RAG022147_18",2018-10-01 16:30:00,3.47333333333333,3.936,1.13320537428023
"1481","07RAG002867","07RAG002867_18",2018-10-01 20:15:00,3.47,4.92,1.4178674351585
"1491","08LIT2685","08LIT2685_18",2018-10-02 16:00:00,3.94,9.84,2.49746192893401
"1501","08NOR2115","08NOR2115_18",2018-10-02 18:05:00,4.34666666666667,6.56,1.50920245398773
"1511","08WES1490","08WES1490_18",2018-10-02 18:20:00,6.04333333333333,7.544,1.24831770546056
"1521","08WES1579","08WES1579_18",2018-10-02 20:30:00,14.3266666666667,9.84,0.686831084225221
"1531","BSE_8_268hAveSE","BSE_8_268hAveSE_18",2018-10-03 15:34:00,6.74,15.744,2.33590504451039
"1541","09LOW0751","09LOW0751_18",2018-10-04 15:15:00,7.63666666666667,7.872,1.03081623745089
"1551","08LAK3880","08LAK3880_18",2018-10-04 18:40:00,3.84,6.56,1.70833333333333
"1561","09MID1744","09MID1744_18",2018-10-05 19:00:00,18.32,22.96,1.25327510917031
"1571","07TKL047047","07TKL047047_18",2018-10-08 16:40:00,4.33333333333333,6.56,1.51384615384615
"1581","08BEA3312","08BEA3312_19",2019-06-16 16:13:00,6.13333333333333,9.84,1.60434782608696
"1591","08ISS3877","08ISS3877_19",2019-07-15 16:00:00,9.59666666666667,16.4,1.70892671066342
"1601","08BEA3737","08BEA3737_19",2019-07-16 19:30:00,4.27333333333333,4.92,1.15132605304212
"161","08BEA3474","08BEA3474_19",2019-07-17 15:11:00,3.62666666666667,9.84,2.71323529411765
"162","08LIT2682","08LIT2682_19",2019-07-17 18:30:00,6.14666666666667,9.84,1.60086767895879
"163","08EAS1536","08EAS1536_19",2019-07-18 15:10:00,10.1066666666667,9.84,0.973614775725594
"164","09COV1862","09COV1862_19",2019-07-18 15:30:00,5.04666666666667,9.84,1.94980184940555
"165","08ISS3962","08ISS3962_19",2019-07-18 16:50:00,3.59,9.84,2.74094707520891
"166","08WES1178","08WES1178_19",2019-07-18 18:10:00,10.3666666666667,9.84,0.9491961414791
"167","09COV1864","09COV1864_19",2019-07-18 18:56:00,4.65666666666667,4.264,0.915676449534717
"168","08WES0905","08WES0905_19",2019-07-18 21:30:00,5.63,9.84,1.74777975133215
"169","07PAT166087","07PAT166087_19",2019-07-22 16:37:00,2.76333333333333,6.56,2.37394451145959
"170","07TKL072439","07TKL072439_19",2019-07-22 18:35:00,9.07,9.84,1.08489525909592
"171","08ISS4748","08ISS4748_19",2019-07-22 19:50:00,5.39666666666667,7.872,1.45867819641754
"172","09DUW0225","09DUW0225_19",2019-07-23 15:45:00,4.61333333333333,3.28,0.710982658959537
"173","08CED4192","08CED4192_19",2019-07-23 16:00:00,4.58,9.84,2.14847161572052
"174","09DUW0091","09DUW0091_19",2019-07-23 19:30:00,4.73333333333333,4.92,1.03943661971831
"175","08ISS4735","08ISS4735_19",2019-07-23 20:00:00,5.39666666666667,9.84,1.82334774552193
"176","08SAM2855","08SAM2855_19",2019-07-25 19:00:00,4.3,3.28,0.762790697674419
"177","07RAG004615","07RAG004615_19",2019-07-29 15:30:00,6.44666666666667,9.84,1.52637021716649
"178","08ISS4884","08ISS4884_19",2019-07-29 16:00:00,8.79,6.56,0.746302616609784
"179","07RAG018227","07RAG018227_19",2019-07-29 18:30:00,6.44333333333333,9.84,1.52715985514744
"180","08ISS4294","08ISS4294_19",2019-07-29 18:45:00,5.96333333333333,9.84,1.65008384572387
"181","09MID1958","09MID1958_19",2019-07-29 20:45:00,4.87666666666667,9.84,2.01777170198223
"182","08ISS4730","08ISS4730_19",2019-07-29 22:00:00,5.36666666666667,9.84,1.83354037267081
"183","08CED5032","08CED5032_19",2019-07-31 16:00:00,4.42,4.92,1.1131221719457
"184","08CED4975","08CED4975_19",2019-07-31 17:30:00,7.62333333333333,6.56,0.860515959772628
"185","08CED5046","08CED5046_19",2019-07-31 20:00:00,2.95,5.904,2.00135593220339
"186","08CED2898","08CED2898_19",2019-08-01 15:12:00,3.58333333333333,6.56,1.8306976744186
"187","07SFS066611","07SFS066611_19",2019-08-01 16:15:00,4.12666666666667,6.56,1.58966074313409
"188","08CED2518","08CED2518_19",2019-08-01 17:30:00,5.29333333333333,9.84,1.85894206549118
"189","07LMS055075","07LMS055075_19",2019-08-01 19:30:00,7.94666666666667,9.84,1.23825503355705
"190","08CED2711","08CED2711_19",2019-08-01 20:45:00,3.55333333333333,4.92,1.38461538461538
"191","08LIT2781","08LIT2781_19",2019-08-05 15:45:00,4.05333333333333,9.84,2.42763157894737
"192","08NOR2306","08NOR2306_19",2019-08-05 19:00:00,2.23333333333333,6.56,2.93731343283582
"193","08EVA3642","08EVA3642_19",2019-08-06 07:00:00,2.54333333333333,3.28,1.28964613368283
"194","08SAM2674","08SAM2674_19",2019-08-06 16:45:00,4.94666666666667,9.84,1.98921832884097
"195","08BEA3650","08BEA3650_19",2019-08-06 17:30:00,4.12333333333333,6.56,1.5909458367017
"196","08BEA3826","08BEA3826_19",2019-08-06 17:40:00,4.13666666666667,4.92,1.18936341659952
"197","08BEA3914","08BEA3914_19",2019-08-06 19:25:00,2.66666666666667,3.28,1.23
"198","08NOR1362","08NOR1362_19",2019-08-06 19:40:00,7.40666666666667,9.84,1.32853285328533
"199","08LAK3121","08LAK3121_19",2019-08-06 20:17:00,6.54333333333333,6.56,1.00254712175242
"200","07RAG002867","07RAG002867_19",2019-08-07 15:45:00,2.81,3.28,1.16725978647687
"201","09MID1374","09MID1374_19",2019-08-07 16:00:00,7.08666666666667,8.2,1.15710253998119
"202","07RAG043443","07RAG043443_19",2019-08-07 18:45:00,6.60333333333333,9.84,1.49015648662292
"203","09NEW1657","09NEW1657_19",2019-08-07 20:00:00,5.48666666666667,9.84,1.79343863912515
"204","08EVA3637","08EVA3637_19",2019-08-08 16:00:00,2.50333333333333,3.28,1.31025299600533
"205","07CHR045515","07CHR045515_19",2019-08-08 16:30:00,4.54333333333333,8.2,1.8048422597212
"206","08LAK3879","08LAK3879_19",2019-08-12 15:15:00,6.71,9.84,1.46646795827124
"207","07TKL047047","07TKL047047_19",2019-08-12 15:30:00,4.2,9.84,2.34285714285714
"208","07PAT001415","07PAT001415_19",2019-08-12 18:30:00,4.52,6.56,1.45132743362832
"209","09DUW0277","09DUW0277_19",2019-08-12 19:20:00,3.95,6.56,1.66075949367089
"210","09MID1817","09MID1817_19",2019-08-13 15:45:00,6.98666666666667,6.56,0.938931297709924
"211","09COV1756","09COV1756_19",2019-08-13 19:47:00,5.95,8.2,1.3781512605042
"212","07LMS033235","07LMS033235_19",2019-08-14 16:05:00,6.07,9.84,1.62108731466227
"213","07RAG022147","07RAG022147_19",2019-08-14 17:15:00,5.43,4.92,0.906077348066298
"214","09SOO1134","09SOO1134_19",2019-08-15 15:15:00,5.96,9.84,1.6510067114094
"215","09SOO1130","09SOO1130_19",2019-08-15 19:00:00,5.22333333333333,9.84,1.88385449904276
"216","08BEA3747","08BEA3747_19",2019-08-19 15:45:00,4.42666666666667,4.92,1.11144578313253
"217","09DEE2211","09DEE2211_19",2019-08-19 16:20:00,8.88666666666667,6.56,0.738184546136534
"218","08BEA3571","08BEA3571_19",2019-08-19 18:45:00,3.10333333333333,9.84,3.17078410311493
"219","08NOR1750","08NOR1750_19",2019-08-19 21:15:00,5.22,8.2,1.57088122605364
"220","07HAR025863","07HAR025863_19",2019-08-20 15:54:00,5.36,4.92,0.917910447761194
"221","08EAS2546","08EAS2546_19",2019-08-20 17:45:00,4.13666666666667,3.28,0.792908944399678
"222","07GRN022903","07GRN022903_19",2019-08-20 18:39:00,5.57333333333333,8.2,1.47129186602871
"223","08EAS1964","08EAS1964_19",2019-08-20 21:00:00,5.65,9.84,1.74159292035398
"224","08LAK3628","08LAK3628_19",2019-08-22 15:15:00,9.82333333333333,9.84,1.00169664065151
"225","07STL080295","07STL080295_19",2019-08-22 17:30:00,7.50333333333333,9.84,1.31141714793425
"226","08NOR1370","08NOR1370_19",2019-08-22 19:30:00,3.35333333333333,4.92,1.46719681908549
"227","07CHR234411","07CHR234411_19",2019-08-22 21:15:00,12.4066666666667,9.84,0.793121977431488
"228","WalkerPreserve","WalkerPreserve_19",2019-08-26 15:15:00,4.43666666666667,6.56,1.47858752817431
"229","Miller_SWSSD","Miller_SWSSD_19",2019-08-26 15:20:00,7.21666666666667,9.84,1.3635103926097
"230","Miller_Cove","Miller_Cove_19",2019-08-26 17:00:00,4.35,9.84,2.26206896551724
"231","08WES1340","08WES1340_19",2019-08-26 18:15:00,7.14666666666667,8.2,1.14738805970149
"232","08SAM2865","08SAM2865_19",2019-08-27 15:30:00,3.22,6.56,2.03726708074534
"233","07LNT163403","07LNT163403_19",2019-08-27 16:30:00,6.81,6.56,0.963289280469897
"234","07SFS041891","07SFS041891_19",2019-08-27 20:27:00,3.25666666666667,6.56,2.014329580348
"235","07PAT187623","07PAT187623_19",2019-08-28 15:45:00,2.99,4.92,1.64548494983278
"236","08SAM3047","08SAM3047_19",2019-08-28 16:15:00,4.18333333333333,4.92,1.17609561752988
"237","07PAT231079","07PAT231079_19",2019-08-28 17:53:00,5.05,4.92,0.974257425742574
"238","09BLA0768","09BLA0768_19",2019-08-28 18:20:00,3.67666666666667,9.84,2.67633726201269
"239","08WES0622","08WES0622_19",2019-08-28 20:05:00,6.46,9.84,1.52321981424149
"240","09DEE2208","09DEE2208_19",2019-08-28 21:00:00,4.52666666666667,6.56,1.44918998527246
"241","08LAK3540","08LAK3540_19",2019-08-29 15:15:00,4.21,6.56,1.55819477434679
"242","08ISS3958","08ISS3958_19",2019-08-29 16:15:00,1.90666666666667,3.28,1.72027972027972
"243","08ISS4573","08ISS4573_19",2019-08-29 18:00:00,3.07,4.92,1.60260586319218
"244","07CHR070059","07CHR070059_19",2019-09-03 16:00:00,8.00333333333333,6.56,0.819658475635152
"245","07GRN077319","07GRN077319_19",2019-09-03 18:00:00,4.67333333333333,6.56,1.4037089871612
"246","09BLA0817","09BLA0817_19",2019-09-04 18:55:00,5.81333333333333,6.56,1.12844036697248
"247","08EAS2058","08EAS2058_19",2019-09-04 21:10:00,10.1966666666667,6.56,0.643347499182739
"248","09LOW0753","09LOW0753_19",2019-09-05 16:15:00,6.86333333333333,5.412,0.788538125303545
"249","07LMS026663","07LMS026663_19",2019-09-05 17:15:00,8.44,19.68,2.33175355450237
"250","09LOW0751","09LOW0751_19",2019-09-05 18:15:00,6.39666666666667,4.92,0.769150599270453
"251","07LMS103591","07LMS103591_19",2019-09-05 19:45:00,2.76,9.84,3.56521739130435
"252","09JEN1318","09JEN1318_19",2019-09-05 20:15:00,5.89333333333333,4.92,0.834841628959276
"253","08LAK3699","08LAK3699_19",2019-09-09 18:15:00,11.1666666666667,13.12,1.17492537313433
"254","09LOW0325","09LOW0325_19",2019-09-10 15:15:00,10.02,9.84,0.982035928143713
"255","BSE_21_GolfCrs","BSE_21_GolfCrs_19",2019-09-10 16:45:00,4.29333333333333,4.92,1.14596273291925
"256","09MIL0340","09MIL0340_19",2019-09-10 17:15:00,10.9933333333333,9.84,0.895087932080048
"257","08EVA3813","08EVA3813_19",2019-09-10 18:15:00,2.11333333333333,6.56,3.10410094637224
"258","09NEW2128","09NEW2128_19",2019-09-10 19:30:00,3.88,4.92,1.2680412371134
"259","08EAS2446","08EAS2446_19",2019-09-11 15:24:00,4.33333333333333,6.56,1.51384615384615
"260","08EAS2540","08EAS2540_19",2019-09-11 17:30:00,8.95,6.56,0.732960893854749
"261","09MID1744","09MID1744_19",2019-09-11 18:15:00,4.11,6.56,1.59610705596107
"262","08LAK2827","08LAK2827_19",2019-09-11 20:00:00,5.43666666666667,9.84,1.80993255671367
"263","07SFS011475","07SFS011475_19",2019-09-12 15:30:00,8.8,32.8,3.72727272727273
"264","09COV1165","09COV1165_19",2019-09-12 15:30:00,4.46666666666667,6.56,1.46865671641791
"265","07LMS093027","07LMS093027_19",2019-09-12 17:15:00,10.6166666666667,32.8,3.0894819466248
"266","07SFS011059","07SFS011059_19",2019-09-12 19:30:00,8.05333333333333,16.4,2.0364238410596
"267","08EVA3640","08EVA3640_19",2019-09-16 15:40:00,4.96333333333333,6.56,1.3216924110141
"268","08EAS2191","08EAS2191_19",2019-09-16 18:05:00,3.12666666666667,4.92,1.57356076759062
"269","08LIT2585","08LIT2585_19",2019-09-17 18:00:00,7.48333333333333,13.12,1.7532293986637
"270","08SAM2862","08SAM2862_19",2019-09-18 16:45:00,2.46,6.56,2.66666666666667
"271","08EAS2631","08EAS2631_19",2019-09-18 17:00:00,3.74666666666667,9.84,2.62633451957295
"272","08SAM3045","08SAM3045_19",2019-09-18 20:00:00,2.53,6.56,2.59288537549407
"273","08WES1037","08WES1037_19",2019-09-18 20:15:00,6.53666666666667,6.56,1.00356960734319
"274","08LAK3880","08LAK3880_19",2019-09-19 14:45:00,4.06333333333333,6.56,1.61443806398687
"275","07HAR070087","07HAR070087_19",2019-09-19 15:00:00,3.86333333333333,4.92,1.27351164797239
"276","09BLA0771","09BLA0771_19",2019-09-19 15:15:00,4.76666666666667,4.92,1.03216783216783
"277","09SOO1283","09SOO1283_19",2019-09-19 16:15:00,17.8666666666667,9.84,0.550746268656716
"278","09COV1418","09COV1418_19",2019-09-19 17:15:00,5.77666666666667,6.56,1.13560300057703
"279","07SFS009443","07SFS009443_19",2019-09-19 17:45:00,3.45666666666667,9.84,2.8466730954677
"280","09SOO1022","09SOO1022_19",2019-09-19 20:15:00,2.53666666666667,6.56,2.58607095926413
"281","08LAK3627","08LAK3627_19",2019-09-23 15:15:00,4.10333333333333,6.56,1.59870024370431
"282","08CED2433","08CED2433_19",2019-09-23 17:15:00,6.00333333333333,8.2,1.3659078289839
"283","08WES1490","08WES1490_19",2019-09-23 19:15:00,3.48666666666667,6.56,1.88145315487572
"284","09BLA0675","09BLA0675_19",2019-09-24 15:10:00,2.76,6.56,2.3768115942029
"285","09MIL0390","09MIL0390_19",2019-09-24 17:30:00,6.53666666666667,9.84,1.50535441101479
"286","08SAM0000","08SAM0000_19",2019-09-24 19:30:00,4.69666666666667,9.84,2.09510290986515
"287","09JEN1357","09JEN1357_19",2019-09-24 20:00:00,2.79,6.56,2.35125448028674
"288","07PAT228627","07PAT228627_19",2019-09-25 15:30:00,3.95,6.56,1.66075949367089
"289","08WES0629","08WES0629_19",2019-09-25 18:30:00,2.08,4.92,2.36538461538462
"290","09BLA0716","09BLA0716_19",2019-09-26 15:00:00,7.10666666666667,6.56,0.923076923076923
"291","09MID1537","09MID1537_19",2019-09-26 17:30:00,2.78,4.92,1.76978417266187
"292","09SOO1209","09SOO1209_19",2019-09-26 19:45:00,4.47,6.56,1.4675615212528
"293","VashShing","VashShin_19",2019-09-30 15:45:00,8.13666666666667,13.12,1.61245391233101
"294","09DEE2294","09DEE2294_19",2019-09-30 16:15:00,2.98666666666667,4.92,1.64732142857143
"295","VashChris","VashChris_19",2019-09-30 17:45:00,6.21666666666667,9.84,1.5828418230563
"296","28A","28A_19",2019-09-30 19:00:00,3.77,9.84,2.61007957559682
"297","09MID2426","09MID2426_19",2019-09-30 20:15:00,2.54333333333333,4.92,1.93446920052425
"298","08LIT2602","08LIT2602_19",2019-10-01 15:15:00,4.25,6.56,1.54352941176471
"299","08BEA3321","08BEA3321_19",2019-10-01 16:00:00,4.16666666666667,9.84,2.3616
"300","08WES0903","08WES0903_19",2019-10-01 17:15:00,9.26,19.68,2.12526997840173
"301","08LIT2692","08LIT2692_19",2019-10-01 17:45:00,2.55333333333333,6.56,2.56919060052219
"302","08SAM1914","08SAM1914_19",2019-10-01 20:45:00,4,6.56,1.64
"303","07LNT075179","07LNT075179_19",2019-10-02 17:15:00,2.22,4.92,2.21621621621622
"304","09NEW2102","09NEW2102_19",2019-10-03 16:15:00,4.91666666666667,9.84,2.00135593220339
"305","08EAS2272","08EAS2272_19",2019-10-03 19:30:00,3.67666666666667,6.56,1.78422484134179
"306","09NEW2076","09NEW2076_19",2019-10-07 16:00:00,2.01,4.92,2.44776119402985
"307","08LIT2603","08LIT2603_19",2019-10-07 20:15:00,3.68333333333333,6.56,1.78099547511312
"308","08ISS4724","08ISS4724_19",2019-10-11 15:15:00,3.90666666666667,9.84,2.51877133105802
"309","08ISS3877","08ISS3877_20",2020-07-20 17:30:00,5.23333333333333,9.84,1.88025477707006
"310","08BEA3737","08BEA3737_20",2020-07-21 20:20:00,3.58333333333333,4.92,1.37302325581395
"311","09MIL0340","09MIL0340_20",2020-07-22 17:00:00,3.11333333333333,3.28,1.05353319057816
"312","09MIL0390","09MIL0390_20",2020-07-22 18:45:00,4.91,4.92,1.0020366598778
"313","09DUW0225","09DUW0225_20",2020-07-22 22:15:00,8.61666666666667,4.92,0.570986460348162
"314","09COV1165","09COV1165_20",2020-07-23 16:35:00,3.05333333333333,4.92,1.61135371179039
"315","09JEN1318","09JEN1318_20",2020-07-23 20:30:00,5.18666666666667,4.92,0.948586118251928
"316","09BLA0675","09BLA0675_20",2020-07-27 17:00:00,3.08666666666667,4.92,1.5939524838013
"317","08EAS2058","08EAS2058_20",2020-07-27 19:30:00,12.1,13.12,1.08429752066116
"318","09BLA0716","09BLA0716_20",2020-07-27 19:45:00,3.66,4.92,1.34426229508197
"319","09DUW0091","09DUW0091_20",2020-07-28 15:30:00,7.94333333333333,4.92,0.619387326898867
"320","08CED5046","08CED5046_20",2020-07-28 17:45:00,3.18,4.92,1.54716981132075
"321","08ISS4724","08ISS4724_20",2020-07-28 18:15:00,1.79333333333333,4.92,2.74349442379182
"322","09COV1756","09COV1756_20",2020-07-28 19:50:00,2,4.92,2.46
"323","08CED5032","08CED5032_20",2020-07-28 21:30:00,7.17666666666667,3.28,0.45703669298653
"324","08ISS4294","08ISS4294_20",2020-07-29 15:50:00,3.08,4.92,1.5974025974026
"325","07PAT231079","07PAT231079_20",2020-07-29 16:30:00,5.97666666666667,6.56,1.09760178471835
"326","09MID1374","09MID1374_20",2020-07-29 17:30:00,3.31333333333333,4.92,1.48490945674044
"327","09COV1418","09COV1418_20",2020-07-29 21:00:00,4.22333333333333,4.92,1.16495659037095
"328","08WES1178","08WES1178_20",2020-07-30 15:30:00,5.87666666666667,3.28,0.558139534883721
"329","09COV1862","09COV1862_20",2020-07-30 16:30:00,4.67,4.92,1.05353319057816
"330","08NOR1370","08NOR1370_20",2020-07-30 18:30:00,2.24666666666667,3.28,1.45994065281899
"331","08ISS4884","08ISS4884_20",2020-08-03 17:00:00,6.03333333333333,4.92,0.815469613259668
"332","09MID1817","09MID1817_20",2020-08-03 18:15:00,5.94666666666667,4.92,0.827354260089686
"333","08ISS4748","08ISS4748_20",2020-08-03 20:00:00,3.63333333333333,4.92,1.35412844036697
"334","09COV1864","09COV1864_20",2020-08-03 21:00:00,5.94666666666667,3.28,0.551569506726457
"335","08ISS3962","08ISS3962_20",2020-08-03 22:20:00,2.38333333333333,4.92,2.06433566433566
"336","08EVA3640","08EVA3640_20",2020-08-04 16:00:00,2.58333333333333,3.28,1.26967741935484
"337","09SOO1134","09SOO1134_20",2020-08-04 16:00:00,2.96333333333333,4.92,1.66029246344207
"338","07HAR025863","07HAR025863_20",2020-08-05 16:40:00,4.92666666666667,6.56,1.33152909336942
"339","08CED2898","08CED2898_20",2020-08-05 16:50:00,3.05,3.28,1.07540983606557
"340","09LOW0753","09LOW0753_20",2020-08-05 19:10:00,4.80333333333333,3.28,0.682859125607217
"341","08CED4192","08CED4192_20",2020-08-05 19:30:00,2.41,4.92,2.04149377593361
"342","08CED2518","08CED2518_20",2020-08-05 23:10:00,3.85666666666667,4.92,1.27571305099395
"343","09DEE2211","09DEE2211_20",2020-08-06 16:35:00,3.33,4.92,1.47747747747748
"344","08LAK3879","08LAK3879_20",2020-08-06 17:15:00,3.09666666666667,4.92,1.58880516684607
"345","09DEE2208","09DEE2208_20",2020-08-06 19:00:00,1.8,4.92,2.73333333333333
"346","08WES0622","08WES0622_20",2020-08-06 19:01:00,7.63666666666667,13.12,1.71802706241816
"347","08WES0629","08WES0629_20",2020-08-06 20:45:00,11.3633333333333,13.12,1.15459078908771
"348","09NEW2102","09NEW2102_20",2020-08-06 21:45:00,2.6,4.92,1.89230769230769
"349","07PAT166087","07PAT166087_20",2020-08-10 17:15:00,5.35666666666667,4.92,0.918481642812695
"350","08BEA3650","08BEA3650_20",2020-08-10 17:45:00,2.99666666666667,3.28,1.09454949944383
"351","07PAT187623","07PAT187623_20",2020-08-10 20:00:00,2.84333333333333,4.92,1.73036342321219
"352","09BLA0771","09BLA0771_20",2020-08-11 15:30:00,6.64333333333333,4.92,0.740592072252885
"353","08LIT2685","08LIT2685_20",2020-08-11 17:30:00,1.76666666666667,3.28,1.85660377358491
"354","09BLA0772","09BLA0772_20",2020-08-11 17:30:00,5.88,4.92,0.836734693877551
"355","08CED2711","08CED2711_20",2020-08-11 20:00:00,5.53666666666667,4.92,0.888621312462372
"356","08LIT2692","08LIT2692_20",2020-08-11 21:23:00,3.01,4.92,1.63455149501661
"357","08NOR1750","08NOR1750_20",2020-08-12 16:45:00,6.82333333333333,6.56,0.961406936980948
"358","07LMS033235","07LMS033235_20",2020-08-12 17:30:00,1.63666666666667,4.92,3.0061099796334
"359","07LMS213875","07LMS213875_20",2020-08-12 20:30:00,1.63666666666667,4.92,3.0061099796334
"360","08SAM2855","08SAM2855_20",2020-08-12 20:30:00,9.34,4.92,0.526766595289079
"361","08BEA3571","08BEA3571_20",2020-08-12 21:00:00,2.19,3.28,1.49771689497717
"362","08LAK3121","08LAK3121_20",2020-08-13 16:30:00,4.69666666666667,4.92,1.04755145493258
"363","09BLA0817","09BLA0817_20",2020-08-13 18:30:00,7.66666666666667,9.84,1.28347826086957
"364","08LAK2827","08LAK2827_20",2020-08-13 19:45:00,4.47666666666667,4.92,1.09903201787044
"365","07TKL072439","07TKL072439_20",2020-08-13 20:00:00,3.76666666666667,3.28,0.870796460176991
"366","08CED2433","08CED2433_20",2020-08-17 16:20:00,2.32666666666667,3.28,1.40974212034384
"367","09BLA0722","09BLA0722_20",2020-08-17 19:40:00,4.44666666666667,4.92,1.10644677661169
"368","09JEN1357","09JEN1357_20",2020-08-17 22:00:00,2.5,4.92,1.968
"369","08ISS4730","08ISS4730_20",2020-08-18 16:30:00,2.79,4.92,1.76344086021505
"370","08ISS4735","08ISS4735_20",2020-08-18 19:45:00,3,3.28,1.09333333333333
"371","08NOR2115","08NOR2115_20",2020-08-18 21:40:00,4.94,6.56,1.32793522267206
"372","08LAK3628","08LAK3628_20",2020-08-19 16:40:00,2.90666666666667,3.28,1.12844036697248
"373","09BLA0768","09BLA0768_20",2020-08-19 19:40:00,2.24,4.92,2.19642857142857
"374","08EAS1964","08EAS1964_20",2020-08-19 22:00:00,3.54333333333333,4.92,1.38852304797742
"375","08SAM2674","08SAM2674_20",2020-08-20 16:15:00,4.5,4.92,1.09333333333333
"376","08BEA3914","08BEA3914_20",2020-08-20 17:00:00,5.27333333333333,6.56,1.24399494310999
"377","08BEA3826","08BEA3826_20",2020-08-20 18:24:00,4.35666666666667,3.28,0.752869166029074
"378","08EAS2191","08EAS2191_20",2020-08-20 18:40:00,4.69666666666667,4.92,1.04755145493258
"379","08SAM3047","08SAM3047_20",2020-08-20 20:35:00,5.62333333333333,6.56,1.16656787196206
"380","08EVA3637","08EVA3637_20",2020-08-20 21:30:00,6.45666666666667,4.92,0.762003097573567
"381","08LIT2781","08LIT2781_20",2020-08-21 07:10:00,3.65333333333333,4.92,1.34671532846715
"382","08SAM1914","08SAM1914_20",2020-08-21 16:45:00,6.52666666666667,4.92,0.753830439223698
"383","07SFS066611","07SFS066611_20",2020-08-24 17:40:00,2.68333333333333,3.28,1.2223602484472
"384","09DEE2163","09DEE2163_20",2020-08-24 17:50:00,4.21,4.92,1.16864608076009
"385","09DUW0277","09DUW0277_20",2020-08-24 20:30:00,2.48333333333333,4.92,1.98120805369128
"386","07SFS009443","07SFS009443_20",2020-08-24 21:30:00,1.55,3.28,2.11612903225806
"387","09LOW0325","09LOW0325_20",2020-08-24 22:10:00,3.84666666666667,3.28,0.852686308492201
"388","07PAT001415","07PAT001415_20",2020-08-25 16:00:00,2,4.92,2.46
"389","08NOR2306","08NOR2306_20",2020-08-25 16:00:00,4.47333333333333,4.92,1.09985096870343
"390","08NOR1362","08NOR1362_20",2020-08-25 19:00:00,3.69666666666667,4.92,1.33092876465284
"391","07STL080295","07STL080295_20",2020-08-25 19:15:00,3.40666666666667,6.56,1.92563600782779
"392","08WES0905","08WES0905_20",2020-08-25 22:15:00,3.51666666666667,4.92,1.39905213270142
"393","07RAG002867","07RAG002867_20",2020-08-26 18:40:00,5.94,3.28,0.552188552188552
"394","07LNT130827","07LNT130827_20",2020-08-26 20:00:00,3.82333333333333,4.92,1.28683522231909
"395","Miller_Cove","Miller_Cove_20",2020-08-27 16:15:00,4.46,4.92,1.10313901345291
"396","07RAG012515","07RAG012515_20",2020-08-27 17:10:00,3.17666666666667,4.92,1.54879328436516
"397","Miller_SWSSD","Miller_SWSSD_20",2020-08-27 18:55:00,2.41666666666667,4.92,2.03586206896552
"398","08EVA3813","08EVA3813_20",2020-08-27 20:00:00,5.45666666666667,9.84,1.80329871716555
"399","08LIT2682","08LIT2682_20",2020-08-27 20:30:00,1.67333333333333,4.92,2.9402390438247
"400","WalkerPreserve","WalkerPreserve_20",2020-08-27 21:15:00,4.14666666666667,4.92,1.18649517684887
"401","08EAS1536","08EAS1536_20",2020-08-31 17:45:00,4.11,4.92,1.1970802919708
"402","BSE_1_MudMtnRd","BSE_1_MudMtnRd_20",2020-08-31 18:00:00,2.57333333333333,4.92,1.9119170984456
"403","BSE_8_268hAveSE","BSE_8_268hAveSE_20",2020-08-31 20:50:00,2.62,4.92,1.87786259541985
"404","08BEA3747","08BEA3747_20",2020-08-31 21:00:00,2.3,4.92,2.13913043478261
"405","08WES1579","08WES1579_20",2020-09-01 15:52:00,6.29666666666667,3.28,0.520910534674431
"406","07RAG004615","07RAG004615_20",2020-09-01 16:15:00,2.05,4.92,2.4
"407","08WES1490","08WES1490_20",2020-09-01 17:45:00,4.82,3.28,0.680497925311203
"408","07RAG018227","07RAG018227_20",2020-09-01 19:30:00,4.46666666666667,4.92,1.10149253731343
"409","08WES1340","08WES1340_20",2020-09-01 20:00:00,3.36666666666667,3.28,0.974257425742574
"410","08WES1037","08WES1037_20",2020-09-01 22:05:00,3.27333333333333,3.28,1.0020366598778
"411","08EVA3642","08EVA3642_20",2020-09-02 16:00:00,4.02666666666667,3.28,0.814569536423841
"412","08SAM2865","08SAM2865_20",2020-09-02 16:15:00,3.33333333333333,4.92,1.476
"413","07HAR070087","07HAR070087_20",2020-09-02 16:30:00,2.75666666666667,3.28,1.18984280532044
"414","09SOO1130","09SOO1130_20",2020-09-02 16:45:00,1.51,4.92,3.25827814569536
"415","BSE_21_GolfCrs","BSE_21_GolfCrs_20",2020-09-02 20:15:00,3.38666666666667,4.92,1.45275590551181
"416","07RAG022147","07RAG022147_20",2020-09-03 16:50:00,2.87666666666667,3.28,1.14020857473928
"417","08EAS2631","08EAS2631_20",2020-09-03 18:20:00,7.37,4.92,0.667571234735414
"418","07SFS041891","07SFS041891_20",2020-09-03 20:25:00,3.95666666666667,4.92,1.24347093513058
"419","08EAS2272","08EAS2272_20",2020-09-03 21:00:00,3.24333333333333,4.92,1.5169578622816
"420","08SAM0000","08SAM0000_20",2020-09-09 19:00:00,5.54666666666667,8.2,1.47836538461538
"421","07STL184007","07STL184007_20",2020-09-10 18:00:00,5.27,9.84,1.86717267552182
"422","08LAK3540","08LAK3540_20",2020-09-21 16:00:00,4.12,4.92,1.19417475728155
"423","08LIT2585","08LIT2585_20",2020-09-21 16:30:00,4.57,13.12,2.87089715536105
"424","07LMS055075","07LMS055075_20",2020-09-21 16:45:00,6.91333333333333,3.28,0.474445515911283
"425","08LAK3627","08LAK3627_20",2020-09-21 17:55:00,1.89333333333333,4.92,2.59859154929577
"426","08BEA3312","08BEA3312_20",2020-09-21 18:50:00,2.47,9.84,3.98380566801619
"427","07TKL047047","07TKL047047_20",2020-09-21 20:00:00,2.39333333333333,3.28,1.37047353760446
"428","08EAS2546","08EAS2546_20",2020-09-21 22:00:00,2.87666666666667,4.92,1.71031286210892
"429","08EAS2446","08EAS2446_20",2020-09-22 15:10:00,4.78333333333333,4.92,1.02857142857143
"430","07LMS103591","07LMS103591_20",2020-09-22 16:42:00,4.94,6.56,1.32793522267206
"431","07LNT062039","07LNT062039_20",2020-09-22 17:15:00,2.89333333333333,4.92,1.70046082949309
"432","08EAS2540","08EAS2540_20",2020-09-22 17:15:00,2.65666666666667,3.28,1.23462986198243
"433","07LMS026663","07LMS026663_20",2020-09-22 18:55:00,4.94666666666667,9.84,1.98921832884097
"434","09MID1537","09MID1537_20",2020-09-22 20:00:00,3.71,4.92,1.32614555256065
"435","07LNT075179","07LNT075179_20",2020-09-22 20:15:00,2.84,4.92,1.73239436619718
"436","07SFS011475","07SFS011475_20",2020-09-22 21:11:00,4.92666666666667,6.56,1.33152909336942
"437","VashShing","VashShin_20",2020-09-22 21:20:00,7.33333333333333,9.84,1.34181818181818
"438","08LIT2602","08LIT2602_20",2020-09-22 21:45:00,4.09666666666667,4.92,1.20097640358015
"439","07GRN022903","07GRN022903_20",2020-09-23 16:30:00,1.89666666666667,3.28,1.72934973637961
"440","09MID2426","09MID2426_20",2020-09-23 16:30:00,4.07333333333333,4.92,1.20785597381342
"441","07LNT163403","07LNT163403_20",2020-09-29 17:45:00,2.88666666666667,3.28,1.13625866050808
"442","09MID1958","09MID1958_20",2020-09-29 17:45:00,4.94333333333333,6.56,1.32703978422117
"443","07CHR070059","07CHR070059_20",2020-09-29 18:15:00,5.29666666666667,4.92,0.928886091881687
"444","09MID1744","09MID1744_20",2020-09-29 20:25:00,5.21666666666667,9.84,1.88626198083067
"445","07CHR045515","07CHR045515_20",2020-09-29 21:45:00,3.47,4.92,1.4178674351585
"446","08LIT2603","08LIT2603_20",2020-09-29 22:00:00,1.92,3.28,1.70833333333333
"447","07RAG043443","07RAG043443_20",2020-09-30 16:30:00,2.84,4.92,1.73239436619718
"448","09DEE2294","09DEE2294_20",2020-09-30 16:30:00,2.94333333333333,4.92,1.67157417893545
"449","08SAM2862","08SAM2862_20",2020-09-30 17:00:00,5.03,6.56,1.30417495029821
"450","09NEW2128","09NEW2128_20",2020-09-30 18:45:00,3.01333333333333,4.92,1.63274336283186
"451","07GRN077319","07GRN077319_20",2020-09-30 19:45:00,3.19333333333333,4.92,1.54070981210856
"452","08SAM3045","08SAM3045_20",2020-09-30 20:00:00,3.40333333333333,6.56,1.92752203721841
"453","08ISS4573","08ISS4573_20",2020-10-01 17:40:00,4.56,6.56,1.43859649122807
"454","09NEW1657","09NEW1657_20",2020-10-01 17:53:00,1.75333333333333,3.28,1.87072243346008
"455","09SOO1209","09SOO1209_20",2020-10-01 18:15:00,2.01666666666667,4.92,2.4396694214876
"456","09LOW0751","09LOW0751_20",2020-10-01 18:30:00,4.22666666666667,4.92,1.16403785488959
"457","08LAK3880","08LAK3880_20",2020-10-01 19:30:00,3.47666666666667,6.56,1.88686481303931
"458","09SOO1022","09SOO1022_20",2020-10-01 20:45:00,4.83333333333333,4.92,1.01793103448276
"459","09NEW2076","09NEW2076_20",2020-10-01 21:00:00,1.35666666666667,3.28,2.41769041769042
"460","07CHR234411","07CHR234411_20",2020-10-02 16:30:00,2.74,4.92,1.7956204379562
"461","28A","28A_20",2020-10-05 20:30:00,2.64,6.56,2.48484848484848
"462","VashChris","VashChris_20",2020-10-05 22:00:00,2.34666666666667,6.56,2.79545454545455
"463","09SOO1283","09SOO1283_20",2020-10-06 21:00:00,3.20333333333333,6.56,2.04786680541103
"464","07SFS011059","07SFS011059_20",2020-10-07 16:30:00,2.78666666666667,6.56,2.35406698564593
"465","07PAT228627","07PAT228627_20",2020-10-07 19:00:00,3.46333333333333,4.92,1.42059672762271
"466","07LMS093027","07LMS093027_20",2020-10-07 19:21:00,7,16.4,2.34285714285714
"467","08LAK3699","08LAK3699_20",2020-10-07 21:50:00,2.82333333333333,4.92,1.74262101534829
"468","08CED5046","08CED5046_21",2021-07-12 20:45:00,3.40666666666667,4.92,1.44422700587084
"469","08CED5032","08CED5032_21",2021-07-13 20:45:00,3.49666666666667,4.92,1.40705433746425
"470","08WES1178","08WES1178_21",2021-07-14 19:30:00,8.06333333333333,4.92,0.610169491525424
"471","08ISS4724","08ISS4724_21",2021-07-14 20:45:00,2.88,4.92,1.70833333333333
"472","08SAM1914","08SAM1914_21",2021-07-19 16:00:00,5.61666666666667,4.92,0.875964391691395
"473","09MIL0340","09MIL0340_21",2021-07-19 16:00:00,5.12333333333333,4.92,0.960312296681848
"474","08SAM2855","08SAM2855_21",2021-07-19 18:45:00,6.26,4.92,0.78594249201278
"475","09MIL0390","09MIL0390_21",2021-07-19 19:15:00,3.82,4.92,1.28795811518325
"476","08BEA3312","08BEA3312_21",2021-07-19 21:00:00,7.01,4.92,0.701854493580599
"477","09MID1817","09MID1817_21",2021-07-19 21:45:00,3.48,4.92,1.41379310344828
"478","07HAR070087","07HAR070087_21",2021-07-20 17:15:00,5.1,4.92,0.964705882352941
"479","07TKL072439","07TKL072439_21",2021-07-20 19:30:00,4.33,4.92,1.13625866050808
"480","08EVA3642","08EVA3642_21",2021-07-20 20:15:00,5.46333333333333,4.92,0.900549115314216
"481","07LMS055075","07LMS055075_21",2021-07-21 16:15:00,3.88666666666667,4.92,1.26586620926244
"482","07PAT231079","07PAT231079_21",2021-07-21 16:30:00,3.03666666666667,4.92,1.62019758507135
"483","08EAS2540","08EAS2540_21",2021-07-21 19:45:00,4.23,3.28,0.775413711583924
"484","08EAS2446","08EAS2446_21",2021-07-21 22:00:00,7.37333333333333,3.28,0.444846292947559
"485","09COV1862","09COV1862_21",2021-07-22 15:30:00,5.38333333333333,4.92,0.913931888544892
"486","08CED2898","08CED2898_21",2021-07-22 16:15:00,2.75333333333333,4.92,1.78692493946731
"487","08WES0622","08WES0622_21",2021-07-22 17:00:00,6.76666666666667,9.84,1.45418719211823
"488","08EAS2631","08EAS2631_21",2021-07-22 18:36:00,5.12666666666667,4.92,0.959687906371911
"489","09COV1864","09COV1864_21",2021-07-22 19:00:00,6.64666666666667,4.92,0.740220661985958
"490","08ISS4730","08ISS4730_21",2021-07-26 17:00:00,4.34666666666667,4.92,1.1319018404908
"491","07SFS066611","07SFS066611_21",2021-07-26 17:20:00,4.33,4.92,1.13625866050808
"492","08ISS4735","08ISS4735_21",2021-07-26 20:30:00,4.46333333333333,4.92,1.10231516056759
"493","08ISS4748","08ISS4748_21",2021-07-26 20:50:00,2.82666666666667,4.92,1.74056603773585
"494","08WES0905","08WES0905_21",2021-07-26 22:30:00,5.15666666666667,4.92,0.954104718810601
"495","08ISS3877","08ISS3877_21",2021-07-27 15:45:00,1.2,3.28,2.73333333333333
"496","09DUW0091","09DUW0091_21",2021-07-28 16:15:00,3.89,3.28,0.84318766066838
"497","ZAK","ZAK_21",2021-07-28 16:30:00,1.65333333333333,3.28,1.98387096774194
"498","09DEE2211","09DEE2211_21",2021-07-28 17:00:00,3.87666666666667,4.92,1.26913155631986
"499","09DUW0225","09DUW0225_21",2021-07-28 19:30:00,4.52,4.92,1.08849557522124
"500","09NEW2128","09NEW2128_21",2021-07-28 19:30:00,3.4,4.92,1.44705882352941
"501","08LAK3540","08LAK3540_21",2021-07-28 20:00:00,2.42,3.28,1.35537190082645
"502","09NEW2102","09NEW2102_21",2021-07-28 21:00:00,2.16333333333333,4.92,2.27426810477658
"503","08EAS2058","08EAS2058_21",2021-07-29 16:45:00,5.32,9.84,1.84962406015038
"504","08CED4192","08CED4192_21",2021-08-02 17:00:00,3.15,3.28,1.04126984126984
"505","09JEN1318","09JEN1318_21",2021-08-02 20:30:00,3.8,4.92,1.29473684210526
"506","09JEN1357","09JEN1357_21",2021-08-02 22:15:00,1.72,3.28,1.90697674418605
"507","08BEA3650","08BEA3650_21",2021-08-04 15:30:00,2.69333333333333,4.92,1.82673267326733
"508","08WES0903","08WES0903_21",2021-08-04 17:30:00,4.97666666666667,9.84,1.97722705961152
"509","09SOO1022","09SOO1022_21",2021-08-04 17:30:00,2.85666666666667,3.28,1.14819136522754
"510","08BEA3737","08BEA3737_21",2021-08-04 18:00:00,4.47666666666667,4.92,1.09903201787044
"511","09SOO1134","09SOO1134_21",2021-08-04 20:30:00,2.16,3.28,1.51851851851852
"512","08EAS2191","08EAS2191_21",2021-08-04 21:30:00,3.51666666666667,4.92,1.39905213270142
"513","07LMS033235","07LMS033235_21",2021-08-05 16:00:00,2.12333333333333,4.92,2.3171114599686
"514","09MID1958","09MID1958_21",2021-08-05 16:45:00,7.75,6.56,0.846451612903226
"515","09MID1744","09MID1744_21",2021-08-05 20:15:00,4.86666666666667,6.56,1.34794520547945
"516","08LAK2827","08LAK2827_21",2021-08-05 20:30:00,4.25666666666667,3.28,0.770555990602976
"517","07RAG004615","07RAG004615_21",2021-08-09 17:00:00,2.77333333333333,4.92,1.77403846153846
"518","08BEA3747","08BEA3747_21",2021-08-09 17:00:00,3.23666666666667,4.92,1.52008238928939
"519","07PAT166087","07PAT166087_21",2021-08-09 20:00:00,4.25,4.92,1.15764705882353
"520","08NOR1370","08NOR1370_21",2021-08-09 21:00:00,2.14333333333333,4.92,2.2954898911353
"521","08WES1490","08WES1490_21",2021-08-12 15:30:00,6.35333333333333,3.28,0.516264428121721
"522","09LOW0753","09LOW0753_21",2021-08-12 16:00:00,4.59,3.28,0.714596949891067
"523","07STL184007","07STL184007_21",2021-08-12 17:30:00,7.27,9.84,1.353507565337
"524","08LIT2692","08LIT2692_21",2021-08-12 18:15:00,3.28666666666667,4.92,1.49695740365112
"525","08WES1579","08WES1579_21",2021-08-12 18:20:00,3.93333333333333,3.28,0.833898305084746
"526","09SOO0943","09SOO0943_21",2021-08-12 19:15:00,1.80333333333333,3.28,1.818853974122
"527","08LIT2602","08LIT2602_21",2021-08-12 22:00:00,4.59666666666667,4.92,1.070340826686
"528","07PAT228627","07PAT228627_21",2021-08-17 16:45:00,1.99666666666667,3.28,1.64273789649416
"529","07RAG043443","07RAG043443_21",2021-08-17 21:30:00,3.06333333333333,4.92,1.60609357997824
"530","09DUW0277","09DUW0277_21",2021-08-18 18:30:00,2.77333333333333,4.92,1.77403846153846
"531","08EAS2546","08EAS2546_21",2021-08-19 16:00:00,2.69,3.28,1.21933085501859
"532","08SAM0000","08SAM0000_21",2021-08-19 16:45:00,3.77666666666667,6.56,1.7369814651368
"533","08WES0629","08WES0629_21",2021-08-19 21:00:00,4.21666666666667,6.56,1.55573122529644
"534","07GRN022903","07GRN022903_21",2021-08-23 17:05:00,3.99333333333333,4.92,1.23205342237062
"535","07CHR045515","07CHR045515_21",2021-08-23 17:45:00,3.71666666666667,3.28,0.882511210762332
"536","07LNT062039","07LNT062039_21",2021-08-23 20:45:00,2.97333333333333,4.92,1.65470852017937
"537","07CHR234411","07CHR234411_21",2021-08-23 22:00:00,2.49,3.28,1.31726907630522
"538","08LAK3121","08LAK3121_21",2021-08-24 16:45:00,2.26,3.28,1.45132743362832
"539","07LNT075179","07LNT075179_21",2021-08-24 18:30:00,5.45666666666667,4.92,0.901649358582773
"540","08NOR2115","08NOR2115_21",2021-08-24 20:30:00,2.13,3.28,1.53990610328638
"541","08ISS3962","08ISS3962_21",2021-08-25 17:15:00,1.88333333333333,3.28,1.74159292035398
"542","07LNT130827","07LNT130827_21",2021-08-25 18:00:00,2.5,4.92,1.968
"543","08SAM2674","08SAM2674_21",2021-08-26 16:45:00,3.42,4.92,1.43859649122807
"544","08ISS4573","08ISS4573_21",2021-08-26 17:00:00,4.49666666666667,6.56,1.45885841363973
"545","08LAK3699","08LAK3699_21",2021-08-26 20:00:00,5.52,9.84,1.78260869565217
"546","08BEA3474","08BEA3474_21",2021-08-26 21:00:00,2.23,4.92,2.20627802690583
"547","08WES1340","08WES1340_21",2021-08-30 16:45:00,4.48666666666667,4.92,1.09658246656761
"548","08LIT2585","08LIT2585_21",2021-08-31 17:15:00,3.33,9.84,2.95495495495495
"549","08SAM2862","08SAM2862_21",2021-08-31 21:00:00,5.44333333333333,9.84,1.80771586037967
"550","BSE_1_MudMtnRd","BSE_1_MudMtnRd_21",2021-09-01 16:30:00,3.06,4.92,1.6078431372549
"551","BSE_8_268hAveSE","BSE_8_268hAveSE_21",2021-09-01 19:15:00,3.74,4.92,1.31550802139037
"552","BSE_21_GolfCrs","BSE_21_GolfCrs_21",2021-09-01 21:00:00,3.08333333333333,4.92,1.59567567567568
"553","07PAT001415","07PAT001415_21",2021-09-02 17:00:00,2.86666666666667,4.92,1.71627906976744
"554","08BEA3914","08BEA3914_21",2021-09-02 17:00:00,6.71,6.56,0.977645305514158
"555","07STL080295","07STL080295_21",2021-09-02 20:30:00,2.36333333333333,4.92,2.08180535966149
"556","08BEA3826","08BEA3826_21",2021-09-02 20:30:00,3.75666666666667,3.28,0.873114463176575
"557","07SFS041891","07SFS041891_21",2021-09-02 20:45:00,2.62333333333333,4.92,1.87547649301144
"558","08SAM3047","08SAM3047_21",2021-09-08 18:30:00,6.01333333333333,6.56,1.09090909090909
"559","08EVA3813","08EVA3813_21",2021-09-09 16:30:00,4.33,6.56,1.51501154734411
"560","08SAM3045","08SAM3045_21",2021-09-09 19:45:00,3.54666666666667,6.56,1.84962406015038
"561","VashShing","VashShin_21",2021-09-13 16:30:00,4.47,9.84,2.20134228187919
"562","09BLA0716","09BLA0716_21",2021-09-13 16:45:00,3.06333333333333,3.28,1.07072905331882
"563","07LMS213875","07LMS213875_21",2021-09-13 17:15:00,2.59333333333333,3.936,1.51773778920308
"564","28A","28A_21",2021-09-13 18:30:00,2.23,6.56,2.94170403587444
"565","09BLA0675","09BLA0675_21",2021-09-13 19:30:00,3.77666666666667,4.92,1.3027360988526
"566","VashChris","VashChris_21",2021-09-13 21:00:00,4.99333333333333,9.84,1.97062750333778
"567","07SFS009443","07SFS009443_21",2021-09-13 21:15:00,3.67333333333333,4.92,1.33938294010889
"568","09BLA0771","09BLA0771_21",2021-09-13 21:45:00,5.44666666666667,3.28,0.602203182374541
"569","08CED2433","08CED2433_21",2021-09-14 16:15:00,1.7,3.28,1.92941176470588
"570","Miller_Cove","Miller_Cove_21",2021-09-14 16:30:00,2.35666666666667,4.92,2.08769448373409
"571","08CED2518","08CED2518_21",2021-09-14 18:00:00,3.45,4.92,1.42608695652174
"572","Miller_SWSSD","Miller_SWSSD_21",2021-09-14 19:50:00,2.64666666666667,3.28,1.23929471032746
"573","08CED2711","08CED2711_21",2021-09-14 21:00:00,3.04,3.28,1.07894736842105
"574","09NEW1657","09NEW1657_21",2021-09-15 16:45:00,2.9,4.92,1.69655172413793
"575","09BLA0772","09BLA0772_21",2021-09-15 21:00:00,4.4,4.92,1.11818181818182
"576","08EVA3637","08EVA3637_21",2021-09-16 15:45:00,2.07333333333333,3.28,1.58199356913183
"577","07LMS103591","07LMS103591_21",2021-09-16 16:30:00,3.37,6.56,1.94658753709199
"578","07SFS011475","07SFS011475_21",2021-09-16 17:00:00,1.88333333333333,4.92,2.61238938053097
"579","08LIT2781","08LIT2781_21",2021-09-16 18:00:00,2.51333333333333,4.92,1.95755968169761
"580","08BEA3571","08BEA3571_21",2021-09-16 18:30:00,1.93666666666667,4.92,2.54044750430293
"581","07LMS026663","07LMS026663_21",2021-09-16 19:15:00,5.64333333333333,13.12,2.3248670998228
"582","07SFS011059","07SFS011059_21",2021-09-16 20:00:00,4.46666666666667,13.12,2.93731343283582
"583","08LIT2603","08LIT2603_21",2021-09-16 20:30:00,1.93666666666667,3.28,1.69363166953528
"584","08EAS1536","08EAS1536_21",2021-09-20 16:00:00,1.5,3.28,2.18666666666667
"585","WalkerPreserve","WalkerPreserve_21",2021-09-20 16:15:00,2.84333333333333,3.28,1.15357561547479
"586","08EAS2272","08EAS2272_21",2021-09-20 18:00:00,1.69333333333333,3.28,1.93700787401575
"587","09BLA0722","09BLA0722_21",2021-09-20 18:00:00,1.75,3.28,1.87428571428571
"588","08EAS1964","08EAS1964_21",2021-09-20 20:30:00,1.82333333333333,4.92,2.69835466179159
"589","09BLA0756","09BLA0756_21",2021-09-20 20:30:00,4.41333333333333,4.92,1.11480362537764
"590","08LAK3628","08LAK3628_21",2021-09-21 16:00:00,4.82333333333333,4.92,1.02004146510021
"591","09MID1374","09MID1374_21",2021-09-21 17:00:00,1.31333333333333,3.28,2.49746192893401
"592","08ISS4294","08ISS4294_21",2021-09-21 17:15:00,2.61,3.28,1.25670498084291
"593","09NEW2076","09NEW2076_21",2021-09-21 20:00:00,3.02,4.92,1.62913907284768
"594","08LAK3879","08LAK3879_21",2021-09-21 20:45:00,3.90666666666667,4.92,1.25938566552901
"595","07RAG018227","07RAG018227_21",2021-09-22 17:00:00,2.58333333333333,4.92,1.90451612903226
"596","08BEA3321","08BEA3321_21",2021-09-22 18:00:00,3.96666666666667,9.84,2.48067226890756
"597","07RAG022147","07RAG022147_21",2021-09-22 21:15:00,1.84666666666667,1.64,0.888086642599278
"598","07RAG012515","07RAG012515_21",2021-09-22 21:30:00,2.76666666666667,4.92,1.77831325301205
"599","08LAK3880","08LAK3880_21",2021-09-23 16:00:00,5.01666666666667,6.56,1.30764119601329
"600","08EVA3640","08EVA3640_21",2021-09-23 16:30:00,2.68333333333333,4.92,1.83354037267081
"601","07CHR070059","07CHR070059_21",2021-09-23 16:45:00,2.80666666666667,3.28,1.16864608076009
"602","09BLA0817","09BLA0817_21",2021-09-23 19:00:00,5.81666666666667,6.56,1.12779369627507
"603","07HAR025863","07HAR025863_21",2021-09-23 19:45:00,2.87,4.92,1.71428571428571
"604","08SAM2865","08SAM2865_21",2021-09-23 19:45:00,1.79,4.92,2.74860335195531
"605","07GRN077319","07GRN077319_21",2021-09-23 21:35:00,4.14666666666667,4.92,1.18649517684887
"606","08WES1037","08WES1037_21",2021-09-28 21:40:00,5.06,4.92,0.972332015810277
"607","07PAT187623","07PAT187623_21",2021-09-29 15:45:00,2.96333333333333,3.28,1.10686164229471
"608","07TKL047047","07TKL047047_21",2021-09-29 16:00:00,2.46666666666667,4.92,1.99459459459459
"609","08NOR1750","08NOR1750_21",2021-09-29 16:20:00,2.45333333333333,4.92,2.0054347826087
"610","08NOR2306","08NOR2306_21",2021-09-29 19:00:00,2.16333333333333,4.92,2.27426810477658
"611","07RAG002867","07RAG002867_21",2021-09-29 19:30:00,3.04333333333333,4.92,1.61664841182913
"612","07LNT163403","07LNT163403_21",2021-09-29 20:00:00,3.04,4.92,1.61842105263158
"613","08LIT2682","08LIT2682_21",2021-09-29 21:40:00,2.88333333333333,4.92,1.70635838150289
"614","08NOR1362","08NOR1362_21",2021-10-04 17:15:00,3.01,4.92,1.63455149501661
"615","09COV1756","09COV1756_21",2021-10-04 20:20:00,2.92666666666667,4.92,1.68109339407745
"616","09LOW0325","09LOW0325_21",2021-10-04 22:15:00,3.65,3.28,0.898630136986301
"617","09COV1165","09COV1165_21",2021-10-04 22:45:00,2.57,3.28,1.27626459143969
"618","09MID2426","09MID2426_21",2021-10-05 16:30:00,2.47666666666667,3.28,1.32436069986541
"619","09COV1418","09COV1418_21",2021-10-05 19:15:00,2.96333333333333,3.28,1.10686164229471
"620","09DEE2294","09DEE2294_21",2021-10-06 15:05:00,1.76333333333333,3.28,1.86011342155009
"621","09LOW0751","09LOW0751_21",2021-10-06 18:00:00,2.11,3.28,1.55450236966825
"622","09SOO1130","09SOO1130_21",2021-10-06 20:30:00,1.45666666666667,3.28,2.25171624713959
"623","09SOO1209","09SOO1209_21",2021-10-07 14:30:00,2.48333333333333,4.92,1.98120805369128
"624","09DEE2208","09DEE2208_21",2021-10-07 16:20:00,2.68666666666667,4.92,1.83126550868486
"625","09SOO1283","09SOO1283_21",2021-10-07 16:30:00,14.4566666666667,9.84,0.680654830528015
"626","09BLA0768","09BLA0768_21",2021-10-07 17:15:00,2.2,3.28,1.49090909090909
"627","09DEE2163","09DEE2163_21",2021-10-07 18:15:00,2.8,4.92,1.75714285714286
"662","07LMS093027","07LMS093027_21",2021-09-16 20:30:00,1.25,4.92,3.936
