"","SiteName","SampleName","OBJECTID.x","ASubstrateClass","BSubstrateClass","CSubstrateClass","DSubstrateClass","ESubstrateClass","FSubstrateClass","GSubstrateClass","HSubstrateClass","ISubstrateClass","JSubstrateClass","KSubstrateClass","LSubstrateClass","MSubstrateClass","NSubstrateClass","OSubstrateClass","PSubstrateClass","QSubstrateClass","RSubstrateClass"
"1","07CHR045515","07CHR045515_17",1,1,3,2,2,2,5,12,1,3,11,9,17,15,12,10,4,NA,NA
"2","07CHR070059","07CHR070059_17",2,1,2,NA,1,4,5,7,18,14,16,22,10,7,2,2,NA,NA,NA
"3","07GRN022903","07GRN022903_17",3,NA,NA,NA,NA,1,2,7,9,25,39,22,10,1,NA,NA,NA,NA,NA
"4","07GRN077319","07GRN077319_17",4,1,1,NA,1,1,NA,3,6,9,18,17,19,12,14,12,4,NA,NA
"5","07HAR025863","07HAR025863_17",5,5,1,1,5,7,5,4,6,15,20,16,5,2,7,8,1,NA,NA
"6","07HAR070087","07HAR070087_17",6,26,NA,NA,6,8,9,9,13,10,9,7,4,NA,NA,NA,NA,NA,NA
"7","07LMS026663","07LMS026663_17",7,NA,NA,NA,NA,NA,NA,NA,NA,NA,NA,1,1,6,17,31,38,13,NA
"8","07LMS033235","07LMS033235_17",8,13,NA,1,NA,NA,7,11,10,14,28,19,22,14,6,NA,NA,NA,NA
"9","07LMS055075","07LMS055075_17",9,7,NA,NA,NA,4,2,8,10,11,17,19,17,9,5,1,NA,NA,NA
"10","07LMS093027","07LMS093027_17",10,1,NA,NA,NA,NA,NA,NA,2,4,3,10,14,22,39,22,49,NA,NA
"11","07LMS103591","07LMS103591_17",11,NA,3,NA,NA,NA,2,9,7,9,12,18,15,6,8,7,5,8,6
"12","07LMS213875","07LMS213875_17",12,4,2,NA,1,NA,NA,1,8,23,21,32,18,10,1,1,NA,NA,NA
"13","07LNT062039","07LNT062039_17",13,NA,NA,NA,NA,NA,2,6,4,16,22,25,22,14,5,2,5,4,2
"14","07LNT075179","07LNT075179_17",14,NA,1,4,1,3,9,10,13,7,9,12,9,6,4,5,9,2,NA
"15","07LNT130827","07LNT130827_17",15,NA,NA,1,NA,1,2,1,6,5,16,18,17,20,17,11,17,NA,NA
"16","07PAT001415","07PAT001415_17",16,2,1,1,1,4,7,10,8,9,17,15,14,9,1,1,NA,NA,NA
"17","07PAT231079","07PAT231079_17",17,16,2,3,2,5,11,14,9,11,14,12,5,3,3,2,NA,NA,NA
"18","07RAG002867","07RAG002867_17",18,NA,2,2,4,6,8,11,12,9,8,13,7,5,1,4,4,2,2
"19","07RAG004615","07RAG004615_17",19,NA,NA,1,4,8,4,10,7,11,17,8,6,11,1,9,6,1,1
"20","07RAG018227","07RAG018227_17",20,NA,2,NA,NA,2,4,6,5,12,9,18,22,14,4,NA,1,NA,NA
"21","07RAG022147","07RAG022147_17",21,2,NA,2,2,9,4,13,15,15,17,13,6,4,4,3,2,NA,NA
"22","07RAG042787","07RAG042787_17",22,NA,4,NA,4,6,3,9,6,10,9,3,5,7,7,6,12,7,3
"23","07RAG043443","07RAG043443_17",23,1,3,3,1,7,7,15,19,20,22,19,9,6,1,NA,NA,NA,NA
"24","07SFS009443","07SFS009443_17",24,NA,NA,NA,NA,2,NA,5,10,17,13,20,21,8,9,3,2,NA,NA
"25","07SFS011059","07SFS011059_17",25,4,1,NA,NA,NA,NA,2,2,18,27,28,28,18,5,NA,1,NA,NA
"26","07SFS011475","07SFS011475_17",26,NA,NA,NA,NA,NA,1,1,7,6,14,14,22,17,14,6,15,1,NA
"27","07SFS041891","07SFS041891_17",27,1,9,1,1,1,3,11,4,8,8,11,11,16,15,6,5,3,1
"28","07SFS066611","07SFS066611_17",28,7,4,1,1,4,NA,7,14,16,16,21,22,2,NA,NA,NA,NA,NA
"29","07STL080295","07STL080295_17",29,1,2,2,NA,1,NA,5,2,10,24,31,28,13,8,1,NA,NA,NA
"30","07STL184007","07STL184007_17",30,1,NA,NA,4,3,2,7,9,11,25,25,22,15,8,7,7,4,NA
"31","07TKL047047","07TKL047047_17",31,NA,NA,1,6,10,5,6,8,12,15,12,15,10,3,2,2,NA,NA
"32","07TKL072439","07TKL072439_17",32,3,2,NA,3,6,8,12,19,15,19,21,6,2,NA,NA,NA,NA,NA
"33","08BEA3312","08BEA3312_17",33,NA,NA,1,1,2,6,14,20,21,26,15,5,NA,NA,NA,NA,NA,NA
"34","08BEA3321","08BEA3321_17",34,70,2,2,4,7,3,7,16,5,7,9,1,NA,NA,NA,NA,NA,NA
"35","08BEA3474","08BEA3474_17",35,4,22,2,4,3,5,7,3,11,7,5,18,19,9,5,NA,NA,NA
"36","08BEA3571","08BEA3571_17",36,13,3,2,5,1,5,11,15,31,19,8,2,3,2,3,2,NA,NA
"37","08BEA3650","08BEA3650_17",37,5,NA,NA,NA,1,6,11,10,13,18,17,26,8,NA,NA,NA,NA,NA
"38","08BEA3737","08BEA3737_17",38,4,1,NA,1,5,14,30,40,20,3,2,NA,NA,NA,NA,NA,NA,NA
"39","08BEA3747","08BEA3747_17",39,9,2,3,3,9,13,14,16,21,14,10,2,1,3,1,NA,NA,NA
"40","08BEA3826","08BEA3826_17",40,6,6,1,4,5,8,17,14,18,20,10,1,6,3,NA,NA,NA,NA
"41","08BEA3914","08BEA3914_17",41,1,NA,1,NA,1,3,3,12,30,23,23,14,NA,NA,NA,NA,NA,NA
"42","08CED2433","08CED2433_17",42,1,NA,3,3,1,3,7,8,8,15,18,25,11,6,1,2,2,NA
"43","08CED2518","08CED2518_17",43,3,4,2,NA,1,3,7,10,19,21,16,11,5,2,NA,NA,NA,NA
"44","08CED2711","08CED2711_17",44,NA,NA,NA,1,1,1,1,6,11,23,25,20,11,6,1,2,1,NA
"45","08CED2898","08CED2898_17",45,12,NA,1,3,7,10,15,31,17,9,NA,1,NA,NA,NA,NA,NA,NA
"46","08CED4192","08CED4192_17",46,NA,1,1,1,2,6,5,8,8,12,16,11,15,10,1,8,NA,NA
"47","08CED4975","08CED4975_17",47,19,9,4,9,15,19,14,12,7,1,NA,NA,NA,NA,NA,NA,NA,NA
"48","08CED5032","08CED5032_17",48,12,2,1,2,7,5,6,10,8,9,21,10,13,6,7,14,NA,NA
"49","08CED5046","08CED5046_17",49,NA,4,1,1,1,5,5,8,11,8,15,11,10,4,4,15,4,NA
"50","08EAS1536","08EAS1536_17",50,12,NA,2,3,4,6,8,12,10,16,19,15,4,NA,NA,NA,NA,NA
"51","08EAS1964","08EAS1964_17",51,5,NA,NA,1,1,5,4,16,19,25,20,4,NA,NA,NA,NA,NA,NA
"52","08EAS2058","08EAS2058_17",52,11,NA,1,3,3,2,7,5,12,12,18,20,14,7,1,2,NA,1
"53","08EAS2191","08EAS2191_17",53,2,6,6,9,16,16,25,17,7,3,3,NA,NA,NA,NA,NA,NA,NA
"54","08EAS2272","08EAS2272_17",54,NA,6,NA,1,NA,1,14,11,19,13,15,10,12,5,4,3,1,NA
"55","08EAS2446","08EAS2446_17",55,1,1,3,3,9,6,10,8,15,20,17,14,9,2,NA,NA,NA,NA
"56","08EAS2540","08EAS2540_17",56,NA,NA,1,3,9,8,10,13,24,19,11,5,5,2,1,2,NA,NA
"57","08EAS2546","08EAS2546_17",57,2,3,5,3,4,4,13,10,16,9,17,8,3,3,NA,NA,NA,NA
"58","08EAS2631","08EAS2631_17",58,1,3,NA,3,3,2,8,23,31,18,16,7,1,2,NA,NA,NA,NA
"59","08EVA3637","08EVA3637_17",59,34,4,9,9,5,10,10,9,10,8,5,NA,NA,NA,NA,NA,NA,NA
"60","08EVA3640","08EVA3640_17",60,22,5,6,4,11,12,14,13,6,8,6,8,9,2,NA,NA,2,NA
"61","08EVA3642","08EVA3642_17",61,7,3,4,5,3,11,11,14,24,8,12,5,5,NA,NA,NA,NA,NA
"62","08EVA3813","08EVA3813_17",62,2,1,4,2,12,15,25,24,10,6,4,2,3,NA,NA,NA,2,NA
"63","08ISS3877","08ISS3877_17",63,NA,1,1,3,2,7,9,22,16,17,16,10,NA,NA,NA,NA,NA,1
"64","08ISS3958","08ISS3958_17",64,4,1,NA,4,6,3,11,15,3,4,6,8,16,17,3,NA,NA,NA
"65","08ISS3962","08ISS3962_17",65,9,NA,2,4,7,5,15,17,13,23,20,6,1,NA,NA,NA,NA,NA
"66","08ISS4294","08ISS4294_17",66,8,NA,1,2,3,2,5,12,14,24,20,21,21,1,1,4,NA,NA
"67","08ISS4573","08ISS4573_17",67,13,NA,1,NA,2,5,3,8,11,14,27,10,5,3,NA,NA,NA,NA
"68","08ISS4724","08ISS4724_17",68,25,1,1,1,5,4,9,21,17,22,11,6,NA,NA,NA,NA,NA,NA
"69","08ISS4730","08ISS4730_17",69,2,NA,NA,1,5,3,7,8,15,13,24,19,8,6,12,1,NA,NA
"70","08ISS4748","08ISS4748_17",70,2,6,3,4,4,1,3,NA,2,6,9,11,7,10,15,9,3,1
"71","08ISS4884","08ISS4884_17",71,3,2,3,4,8,8,8,8,12,13,16,7,10,2,3,1,NA,NA
"72","08LAK2827","08LAK2827_17",72,4,5,NA,2,2,4,9,19,30,15,10,10,10,1,1,NA,NA,NA
"73","08LAK3121","08LAK3121_17",73,1,5,3,2,3,7,15,17,14,17,7,13,3,1,NA,NA,NA,NA
"74","08LAK3540","08LAK3540_17",74,5,NA,NA,1,3,8,24,19,23,20,10,1,1,NA,1,1,NA,NA
"75","08LAK3627","08LAK3627_17",75,10,2,2,9,9,11,20,18,19,14,6,NA,NA,NA,NA,NA,NA,NA
"76","08LAK3628","08LAK3628_17",76,12,1,NA,NA,8,4,13,22,21,15,13,4,2,1,NA,NA,NA,NA
"77","08LAK3699","08LAK3699_17",77,6,6,1,2,2,6,11,18,22,15,15,2,NA,NA,1,NA,NA,NA
"78","08LAK3879","08LAK3879_17",78,2,2,1,NA,1,3,13,22,12,27,9,13,3,NA,NA,NA,NA,NA
"79","08LAK3880","08LAK3880_17",79,19,NA,NA,NA,3,7,13,21,18,11,14,12,6,NA,NA,NA,NA,NA
"80","08LIT2585","08LIT2585_17",80,2,2,NA,1,3,5,6,18,18,34,23,7,NA,NA,NA,NA,NA,NA
"81","08LIT2602","08LIT2602_17",81,11,3,1,8,12,27,34,25,4,NA,NA,NA,NA,NA,NA,NA,NA,NA
"82","08LIT2603","08LIT2603_17",82,1,4,8,10,13,13,23,10,21,6,2,1,NA,NA,NA,NA,NA,NA
"83","08LIT2682","08LIT2682_17",83,NA,NA,1,1,11,2,7,17,28,25,15,1,1,NA,NA,NA,NA,NA
"84","08LIT2685","08LIT2685_17",84,9,1,3,4,6,14,18,18,27,9,4,4,NA,NA,NA,NA,NA,NA
"85","08LIT2692","08LIT2692_17",85,NA,NA,NA,2,7,6,13,15,21,23,12,2,NA,NA,NA,NA,NA,NA
"86","08LIT2781","08LIT2781_17",86,6,NA,NA,1,6,11,14,29,32,12,6,1,NA,NA,NA,NA,NA,NA
"87","08NOR1362","08NOR1362_17",87,8,5,6,4,3,2,4,5,22,19,27,30,32,NA,NA,NA,NA,NA
"88","08NOR1370","08NOR1370_17",88,3,NA,1,1,4,6,24,27,20,13,5,2,2,1,NA,NA,NA,NA
"89","08NOR1750","08NOR1750_17",89,7,1,4,6,9,7,9,13,13,12,18,5,3,NA,NA,NA,NA,NA
"90","08NOR1756","08NOR1756_17",90,7,1,3,6,17,23,28,25,9,NA,NA,NA,NA,NA,NA,NA,NA,NA
"91","08NOR2115","08NOR2115_17",91,6,NA,3,1,3,12,10,18,16,11,12,8,6,1,2,NA,NA,NA
"92","08NOR2306","08NOR2306_17",92,20,1,NA,NA,3,4,9,10,24,20,8,3,1,NA,NA,2,1,NA
"93","08SAM0000","08SAM0000_17",93,16,1,NA,2,8,11,14,22,18,9,NA,NA,1,NA,NA,NA,NA,NA
"94","08SAM1914","08SAM1914_17",94,9,4,1,1,2,3,5,4,12,17,15,18,7,1,1,1,NA,NA
"95","08SAM2674","08SAM2674_17",95,19,2,NA,4,8,12,13,10,13,15,7,7,1,NA,NA,NA,NA,NA
"96","08SAM2855","08SAM2855_17",96,2,NA,2,2,6,7,7,10,15,8,25,24,7,7,2,2,NA,NA
"97","08SAM2862","08SAM2862_17",97,11,1,1,1,6,9,13,19,14,20,12,9,5,NA,NA,NA,NA,NA
"98","08SAM2865","08SAM2865_17",98,23,1,1,NA,6,4,15,10,16,9,13,5,4,NA,NA,NA,NA,NA
"99","08SAM3045","08SAM3045_17",99,21,NA,3,4,9,10,11,20,18,11,5,NA,NA,NA,NA,NA,NA,NA
"100","08SAM3047","08SAM3047_17",100,6,NA,2,8,5,14,20,13,18,4,3,5,3,NA,NA,NA,NA,NA
"101","08WES0622","08WES0622_17",101,21,2,7,3,16,20,23,9,2,NA,1,NA,NA,NA,NA,NA,1,NA
"102","08WES0629","08WES0629_17",102,7,4,3,11,11,8,14,16,13,20,5,2,NA,NA,NA,NA,NA,NA
"103","08WES0903","08WES0903_17",103,5,2,1,1,2,7,7,21,28,21,7,1,NA,NA,NA,NA,NA,NA
"104","08WES0905","08WES0905_17",104,1,3,NA,1,8,6,22,13,22,18,10,5,3,NA,NA,NA,NA,NA
"105","08WES1037","08WES1037_17",105,27,7,14,19,22,9,7,4,1,1,1,NA,NA,NA,NA,NA,NA,NA
"106","08WES1178","08WES1178_17",106,NA,NA,NA,1,9,5,6,11,26,22,18,8,3,NA,NA,NA,NA,NA
"107","08WES1340","08WES1340_17",107,NA,NA,NA,3,6,12,12,19,23,19,18,5,1,NA,NA,NA,NA,NA
"108","08WES1579","08WES1579_17",108,8,1,7,4,9,10,19,20,17,7,5,NA,NA,NA,NA,NA,NA,NA
"109","09BLA0675","09BLA0675_17",109,1,1,NA,NA,1,3,5,13,18,28,24,8,4,NA,NA,NA,NA,NA
"110","09BLA0716","09BLA0716_17",110,10,2,2,4,3,6,10,17,14,12,11,3,3,5,NA,NA,NA,NA
"111","09BLA0722","09BLA0722_17",111,2,NA,NA,NA,1,1,5,6,22,26,21,12,7,1,NA,NA,NA,NA
"112","09BLA0756","09BLA0756_17",112,NA,NA,NA,NA,NA,5,17,22,26,30,11,NA,NA,NA,NA,NA,NA,NA
"113","09BLA0768","09BLA0768_17",113,12,5,3,3,7,6,8,14,18,21,5,6,1,NA,NA,NA,NA,NA
"114","09BLA0771","09BLA0771_17",114,NA,NA,1,4,2,3,27,23,17,12,9,6,8,NA,NA,NA,NA,NA
"115","09BLA0772","09BLA0772_17",115,1,NA,NA,1,6,4,13,15,26,18,17,7,2,NA,NA,NA,NA,NA
"116","09BLA0817","09BLA0817_17",116,42,7,2,5,7,7,29,21,12,5,2,NA,NA,NA,NA,NA,NA,NA
"117","09COV1165","09COV1165_17",117,NA,NA,1,3,2,4,7,12,13,17,14,17,15,10,1,5,NA,NA
"118","09COV1418","09COV1418_17",118,3,NA,1,NA,2,4,13,14,14,24,14,15,4,NA,NA,NA,NA,NA
"119","09COV1756","09COV1756_17",119,14,NA,1,7,5,6,19,17,24,11,12,8,1,3,NA,NA,NA,NA
"120","09COV1862","09COV1862_17",120,3,1,3,NA,3,9,24,27,26,22,11,4,NA,NA,NA,NA,NA,NA
"121","09COV1864","09COV1864_17",121,3,1,5,4,6,9,20,20,13,13,5,5,NA,2,NA,NA,NA,NA
"122","09DEE2163","09DEE2163_17",122,2,NA,NA,NA,1,3,5,8,4,9,14,16,10,12,8,15,1,NA
"123","09DEE2208","09DEE2208_17",123,NA,2,NA,4,NA,2,11,11,12,13,21,16,12,1,NA,NA,NA,NA
"124","09DEE2211","09DEE2211_17",124,1,2,NA,2,5,5,12,11,14,15,22,10,2,1,NA,NA,NA,NA
"125","09DEE2294","09DEE2294_17",125,NA,2,1,1,1,4,2,3,7,6,13,18,17,9,11,6,1,NA
"126","09DUW0091","09DUW0091_17",126,1,7,11,15,14,18,13,21,14,7,5,5,3,1,NA,NA,NA,NA
"127","09DUW0225","09DUW0225_17",127,NA,1,1,1,3,1,2,13,24,26,18,5,9,7,4,4,2,NA
"128","09DUW0277","09DUW0277_17",128,27,NA,NA,4,3,3,8,14,20,17,9,2,NA,1,NA,NA,NA,NA
"129","09JEN1318","09JEN1318_17",129,8,3,9,2,14,23,22,15,17,13,6,2,4,3,NA,NA,NA,NA
"130","09JEN1357","09JEN1357_17",130,NA,6,2,8,4,5,8,13,9,16,14,13,14,7,1,NA,NA,NA
"131","09LOW0325","09LOW0325_17",131,16,NA,NA,1,NA,2,10,17,19,23,12,1,3,NA,NA,NA,NA,NA
"132","09LOW0751","09LOW0751_17",132,5,NA,NA,3,1,2,4,9,23,16,28,18,4,NA,NA,NA,NA,NA
"133","09LOW0753","09LOW0753_17",133,28,NA,NA,NA,NA,NA,NA,2,20,38,29,1,NA,NA,NA,NA,NA,NA
"134","09MID1374","09MID1374_17",134,NA,NA,2,4,2,8,16,13,20,19,13,4,5,3,1,NA,NA,NA
"135","09MID1537","09MID1537_17",135,21,6,8,12,9,10,17,8,7,3,7,2,1,NA,NA,NA,NA,NA
"136","09MID1744","09MID1744_17",136,NA,NA,NA,1,3,9,7,9,9,20,8,8,15,8,6,2,NA,NA
"137","09MID1817","09MID1817_17",137,NA,11,3,1,NA,2,3,5,9,12,29,14,5,3,3,9,1,NA
"138","09MID1958","09MID1958_17",138,NA,NA,NA,2,6,4,8,4,14,15,11,10,12,7,5,4,NA,NA
"139","09MID2426","09MID2426_17",139,5,3,4,3,5,5,9,9,16,12,15,13,3,2,1,NA,NA,NA
"140","09MIL0340","09MIL0340_17",140,2,NA,4,2,5,7,8,15,16,17,12,10,8,9,NA,1,NA,NA
"141","09MIL0390","09MIL0390_17",141,NA,NA,NA,1,NA,3,3,14,17,24,24,15,9,1,NA,NA,NA,NA
"142","09NEW1657","09NEW1657_17",142,3,2,1,NA,2,5,5,7,14,18,18,18,18,9,11,8,NA,NA
"143","09NEW2076","09NEW2076_17",143,5,1,NA,2,3,7,19,23,21,12,7,6,4,NA,1,1,NA,NA
"144","09NEW2102","09NEW2102_17",144,2,5,NA,2,4,2,9,18,20,24,18,1,1,NA,NA,1,NA,NA
"145","09NEW2128","09NEW2128_17",145,2,1,NA,1,2,4,6,13,10,26,27,17,9,NA,NA,NA,NA,NA
"146","09SOO0943","09SOO0943_17",146,3,5,2,7,13,13,29,48,11,3,NA,NA,NA,NA,NA,NA,NA,NA
"147","09SOO1022","09SOO1022_17",147,1,1,NA,5,4,4,11,17,15,16,11,13,7,2,4,3,NA,NA
"148","09SOO1130","09SOO1130_17",148,17,2,NA,NA,4,5,12,13,22,20,22,20,13,17,4,2,1,NA
"149","09SOO1134","09SOO1134_17",149,NA,NA,NA,NA,1,3,4,7,8,14,18,34,19,11,1,1,NA,1
"150","09SOO1209","09SOO1209_17",150,1,8,1,2,2,4,10,10,12,17,11,25,9,6,NA,NA,NA,NA
"151","09SOO1283","09SOO1283_17",151,13,2,6,10,10,16,26,14,21,5,1,NA,2,1,3,4,NA,NA
"152","28A","28A_17",152,7,2,3,6,9,10,11,27,13,15,3,NA,NA,NA,NA,NA,NA,NA
"153","BSE_1_MudMtnRd","BSE_1_MudMtnRd_17",153,5,NA,1,NA,3,10,20,20,29,11,10,1,1,NA,NA,NA,NA,NA
"154","BSE_21_GolfCrs","BSE_21_GolfCrs_17",154,NA,3,NA,2,2,2,5,11,7,18,10,22,10,9,2,2,NA,NA
"155","BSE_8_268hAveSE","BSE_8_268hAveSE_17",155,NA,NA,4,1,2,6,9,27,42,37,11,NA,NA,NA,NA,NA,NA,NA
"156","Miller_Cove","Miller_Cove_17",156,29,NA,2,2,12,14,15,14,9,5,1,NA,NA,NA,NA,NA,NA,NA
"157","Miller_SWSSD","Miller_SWSSD_17",157,NA,NA,NA,NA,NA,11,17,13,20,16,16,7,5,NA,NA,NA,NA,NA
"158","VashChris","VashChris_17",158,33,7,4,6,7,11,17,14,8,4,2,NA,NA,NA,NA,NA,NA,NA
"159","VashShing","VashShing_17",159,8,2,6,8,13,11,22,17,23,5,2,NA,NA,NA,NA,NA,NA,NA
"160","WalkerPreserve","WalkerPreserve_17",160,38,1,3,1,2,10,20,19,7,1,NA,NA,NA,NA,NA,NA,NA,NA
"1100","08EVA3640","08EVA3640_18",4401,11,5,2,1,0,1,7,10,13,18,19,12,4,4,4,0,0,0
"2100","07RAG018227","07RAG018227_18",4402,3,0,0,2,2,7,11,10,10,23,25,18,14,7,1,0,0,0
"3100","07SFS066611","07SFS066611_18",4403,21,1,1,6,9,10,12,15,24,10,6,0,0,0,0,0,0,0
"4100","07LMS055075","07LMS055075_18",4801,0,0,0,0,0,1,4,2,2,12,31,26,17,10,4,1,0,0
"5100","07PAT228627","07PAT228627_18",4802,19,6,1,4,0,3,7,11,11,18,10,13,2,2,0,0,0,0
"624","07RAG043443","07RAG043443_18",4803,0,0,0,1,1,0,5,6,7,16,12,8,15,12,11,21,2,2
"710","07LMS213875","07LMS213875_18",4805,10,0,0,0,0,0,0,1,3,11,32,42,23,16,23,9,0,0
"810","07LMS026663","07LMS026663_18",4806,4,0,0,1,0,1,0,1,2,6,7,15,14,21,34,13,3,0
"910","07LMS033235","07LMS033235_18",4807,7,1,2,0,1,4,3,18,9,23,17,15,8,1,0,0,1,0
"1010","07LMS093027","07LMS093027_18",5201,0,0,0,0,0,0,0,0,0,0,1,5,18,24,42,42,7,0
"1110","07STL080295","07STL080295_18",5601,0,0,0,0,0,0,0,0,0,2,9,23,38,44,16,3,1,0
"1210","08WES0622","08WES0622_18",5602,33,0,0,6,11,11,12,18,9,1,0,0,2,0,0,0,0,0
"1310","08ISS3877","08ISS3877_18",6001,3,0,1,1,2,4,12,16,26,28,29,15,2,1,0,0,0,0
"1410","08WES0629","08WES0629_18",6002,5,0,2,4,6,4,10,16,22,20,16,9,2,1,1,0,0,0
"1510","09BLA0756","09BLA0756_18",6003,4,5,3,14,20,14,4,9,6,16,11,NA,NA,NA,NA,NA,NA,NA
"1610","08BEA3826","08BEA3826_18",6004,3,0,3,4,4,6,14,11,10,12,10,7,17,4,2,1,0,0
"1710","07HAR070087","07HAR070087_18",6401,35,0,0,2,1,5,20,24,7,6,0,1,0,0,0,0,0,0
"1810","08BEA3914","08BEA3914_18",6402,0,1,3,5,5,6,8,21,20,14,19,8,3,0,0,0,0,0
"1910","08EAS2446","08EAS2446_18",6403,7,0,0,0,1,0,7,11,21,17,26,13,2,4,1,0,0,0
"2010","09MIL0390","09MIL0390_18",6005,NA,NA,NA,NA,NA,NA,NA,NA,6,12,42,26,12,2,NA,NA,NA,NA
"2110","08LAK3879","08LAK3879_18",6404,9,1,3,3,8,13,14,11,14,17,9,7,6,4,0,0,0,0
"2210","08WES1178","08WES1178_18",6406,6,2,0,5,4,2,15,20,15,15,15,4,2,0,0,0,0,0
"2310","09MID1374","09MID1374_18",6405,3,4,2,5,2,6,10,16,19,23,13,7,3,3,NA,1,NA,NA
"2411","09SOO1134","09SOO1134_18",6407,3,0,0,0,1,4,3,5,7,15,21,21,19,10,5,0,0,0
"2510","08EAS2272","08EAS2272_18",6408,0,0,0,0,0,0,3,8,11,15,21,20,13,7,2,0,0,0
"2610","08EAS2058","08EAS2058_18",6006,15,1,2,2,5,8,11,25,22,27,32,27,10,5,0,0,0,0
"2710","09MID2426","09MID2426_18",6007,NA,NA,2,3,3,6,15,15,19,28,15,15,5,NA,NA,NA,NA,NA
"2810","BSE_21_GolfCrs","BSE_21_GolfCrs_18",6409,4,1,1,1,0,2,3,3,13,22,25,11,12,3,10,3,0,1
"2910","08EAS2540","08EAS2540_18",6008,20,0,0,1,3,10,12,16,14,20,18,9,7,7,1,0,0,0
"3010","08ISS4294","08ISS4294_18",6009,9,0,0,3,4,5,6,8,13,11,18,10,13,4,10,3,0,1
"3110","08EAS2631","08EAS2631_18",6010,0,1,1,1,1,3,4,5,3,9,20,16,20,15,2,2,0,0
"3210","09MID1817","09MID1817_18",6011,13,1,NA,2,NA,NA,5,11,14,12,18,12,6,2,3,1,NA,NA
"3310","08CED2898","08CED2898_18",6410,61,2,2,0,10,8,16,9,1,2,1,3,4,2,NA,NA,NA,NA
"3410","08EVA3637","08EVA3637_18",6411,28,3,0,4,1,5,7,8,7,14,20,4,0,0,0,0,0,0
"3510","08CED2711","08CED2711_18",6012,6,0,1,0,2,1,6,13,14,18,22,12,8,3,4,0,0,0
"3610","08SAM0000","08SAM0000_18",6013,14,1,1,4,9,19,23,21,16,0,0,0,0,0,0,0,0,0
"3710","08EAS1964","08EAS1964_18",6014,0,0,0,0,0,0,3,7,17,25,38,18,1,0,0,0,0,0
"3810","08ISS4748","08ISS4748_18",6412,5,2,1,3,3,4,6,3,4,7,11,12,15,13,9,2,1,1
"3910","08WES0903","08WES0903_18",6016,7,2,0,0,5,0,11,18,21,26,9,0,0,0,0,0,0,0
"4010","09NEW2102","09NEW2102_18",6413,7,2,1,1,2,1,8,13,19,29,19,4,0,0,0,0,0,0
"4110","08CED4192","08CED4192_18",6801,2,7,1,3,4,8,13,8,14,21,16,5,1,2,1,2,0,0
"4210","08CED5032","08CED5032_18",6802,8,0,2,3,6,11,10,16,10,12,12,12,9,11,5,0,0,0
"4310","08CED2433","08CED2433_18",6803,1,0,0,0,0,5,4,13,14,14,17,13,8,3,3,2,3,0
"4410","08ISS3958","08ISS3958_18",6804,14,0,2,4,10,13,24,9,11,2,6,6,2,2,0,0,0,0
"4510","08ISS4730","08ISS4730_18",6805,6,0,0,0,0,3,3,2,5,17,15,20,16,13,5,0,0,0
"4610","08ISS4884","08ISS4884_18",7201,1,0,0,0,1,1,4,13,8,12,23,19,15,7,1,0,0,0
"4710","08WES1340","08WES1340_18",7202,1,0,3,2,5,9,12,21,17,18,20,5,5,2,0,0,0,0
"4810","08SAM2865","08SAM2865_18",7203,19,2,0,3,5,7,12,15,18,11,4,9,9,1,0,0,0,0
"4910","08ISS3962","08ISS3962_18",7204,7,0,0,0,0,1,1,6,16,20,32,27,16,1,0,0,0,0
"5010","08ISS4573","08ISS4573_18",7205,3,0,2,2,1,4,7,12,15,23,15,21,8,0,0,0,0,0
"5110","08EVA3642","08EVA3642_18",7206,0,0,0,0,0,0,0,0,6,16,21,31,17,10,1,1,0,0
"5210","08EVA3813","08EVA3813_18",7207,0,0,0,0,0,3,7,17,21,22,30,7,2,1,0,0,0,0
"5310","09BLA0722","09BLA0722_18",7208,3,1,0,1,6,2,4,12,11,17,29,13,5,0,0,0,0,0
"5410","09BLA0675","09BLA0675_18",6414,1,0,1,2,1,7,7,16,22,14,24,7,0,0,0,0,0,0
"5510","09BLA0716","09BLA0716_18",7209,10,0,2,1,6,4,6,10,12,14,13,4,8,10,2,0,0,0
"5610","09BLA0817","09BLA0817_18",7210,15,1,3,4,8,5,11,18,17,13,7,3,0,0,0,0,0,0
"5710","09LOW0753","09LOW0753_18",7211,25,0,0,0,0,0,0,0,14,29,29,5,0,0,0,0,0,0
"5810","09BLA0768","09BLA0768_18",6415,0,0,0,1,1,2,11,23,33,30,11,1,0,0,0,0,0,0
"5910","09DUW0277","09DUW0277_18",7603,15,3,3,1,9,3,13,15,12,11,8,8,0,2,0,0,0,0
"6010","09BLA0771","09BLA0771_18",7604,0,0,0,1,5,1,9,17,21,25,23,7,1,1,1,0,0,0
"6110","09BLA0772","09BLA0772_18",7605,0,0,2,3,2,1,0,9,11,21,13,15,16,9,1,0,0,0
"625","09DUW0225","09DUW0225_18",7601,0,0,0,0,1,2,9,14,18,24,15,12,6,4,1,0,0,0
"631","09LOW0325","09LOW0325_18",7602,6,0,0,5,7,5,8,11,14,6,17,15,5,2,0,0,0,0
"641","09NEW2151","09NEW2151_18",8001,3,0,1,1,0,0,1,2,8,5,19,22,15,15,11,0,0,0
"651","07GRN022903","07GRN022903_18",8002,0,0,0,2,1,4,2,11,11,38,32,19,1,1,0,0,0,0
"661","07PAT187623","07PAT187623_18",8003,11,0,0,5,10,23,21,10,13,8,12,2,0,0,0,0,0,0
"671","07RAG004615","07RAG004615_18",8004,5,2,3,0,4,0,8,6,12,12,10,4,7,7,15,5,6,0
"681","09DEE2208","09DEE2208_18",8401,6,0,1,0,0,1,6,9,14,12,21,17,10,2,0,1,0,0
"691","09MIL0340","09MIL0340_18",8402,2,2,2,0,0,4,6,6,16,22,20,10,13,3,0,0,0,0
"701","08CED2518","08CED2518_18",8005,12,2,1,4,5,5,7,9,11,20,12,13,15,8,0,0,0,0
"711","08ISS4735","08ISS4735_18",8403,3,2,0,3,4,5,5,13,17,14,11,8,9,7,5,0,0,0
"721","08WES0905","08WES0905_18",8801,0,0,0,0,0,0,2,10,21,35,26,10,0,0,0,0,0,0
"731","Miller_SWSSD","Miller_SWSSD_18",8802,2,0,0,7,10,14,12,23,14,9,6,3,4,0,0,0,0,0
"741","Miller_Cove","Miller_Cove_18",8803,50,0,4,8,8,14,20,27,10,12,2,0,0,0,0,0,0,0
"751","WalkerPreserve","WalkerPreserve_18",9201,28,2,2,2,5,13,19,16,13,4,0,0,0,0,0,0,0,0
"761","BSE_1_MudMtnRd","BSE_1_MudMtnRd_18",8804,2,1,0,0,0,1,2,3,8,11,29,29,19,11,1,0,0,0
"771","09DEE2211","09DEE2211_18",8805,8,0,1,3,3,9,13,5,5,17,10,15,13,3,2,0,0,0
"781","09MID1537","09MID1537_18",8806,31,0,1,2,5,3,7,19,21,16,5,0,0,0,0,0,0,0
"791","08LIT2682","08LIT2682_18",8807,0,0,0,0,2,4,2,24,36,23,20,7,2,0,0,0,0,0
"801","08LIT2585","08LIT2585_18",9202,7,0,0,3,2,0,10,36,22,14,4,1,1,0,0,0,0,0
"811","08SAM2855","08SAM2855_18",9601,0,0,2,2,7,9,13,10,10,20,20,10,7,1,0,0,0,0
"821","08ISS4724","08ISS4724_18",10001,15,1,NA,1,4,6,7,14,25,29,11,3,2,NA,NA,NA,NA,NA
"831","08NOR1750","08NOR1750_18",10002,8,NA,1,5,5,9,22,15,17,7,12,1,NA,NA,NA,NA,NA,NA
"841","07SFS011059","07SFS011059_18",10003,5,1,2,NA,2,2,5,4,7,13,18,18,17,5,2,1,NA,NA
"851","07LST069191","07LST069191_18",10801,1,4,1,0,3,5,5,11,12,16,17,12,7,4,8,5,0,0
"861","07SFS009443","07SFS009443_18",10802,1,4,0,1,4,3,13,14,26,26,19,13,3,0,0,0,0,0
"871","07TKL072439","07TKL072439_18",10803,8,2,1,0,3,1,12,13,17,14,18,16,9,4,NA,NA,NA,NA
"881","07LNT163403","07LNT163403_18",11201,0,0,0,0,0,0,0,1,4,9,16,15,22,13,26,3,0,0
"891","07LNT130827","07LNT130827_18",11202,0,0,0,1,1,0,2,5,7,23,21,28,11,15,15,2,0,0
"901","07LNT062039","07LNT062039_18",11203,0,0,1,1,1,2,4,6,8,13,19,16,18,17,21,7,2,2
"911","08EAS2546","08EAS2546_18",11204,5,NA,1,2,10,15,16,15,16,9,10,4,2,NA,NA,NA,NA,NA
"921","07RAG042787","07RAG042787_18",11601,0,0,0,0,0,0,7,3,6,10,11,23,10,19,7,3,1,1
"931","08EAS2191","08EAS2191_18",11602,5,NA,NA,5,5,18,40,25,9,8,2,NA,NA,NA,NA,NA,NA,NA
"941","08WES1037","08WES1037_18",11205,30,0,2,1,5,4,12,8,12,12,7,2,3,3,1,0,0,0
"951","09COV1862","09COV1862_18",11206,0,3,0,1,1,3,7,22,19,20,35,8,0,0,0,0,0,0
"961","09COV1864","09COV1864_18",11207,0,0,0,0,0,2,7,8,31,19,19,11,5,4,0,0,0,0
"971","09DUW0091","09DUW0091_18",11603,5,1,0,3,4,11,6,9,9,6,15,16,6,7,8,5,NA,NA
"981","07CHR070059","07CHR070059_18",12004,4,1,2,3,4,10,3,6,11,19,19,14,8,5,5,4,NA,NA
"991","07STL184007","07STL184007_18",12802,NA,NA,NA,NA,NA,NA,NA,1,2,4,20,29,34,14,9,2,NA,NA
"1001","09SOO0943","09SOO0943_18",12001,2,0,0,0,1,2,4,22,37,35,15,3,0,1,1,2,0,1
"1011","07CHR234411","07CHR234411_18",12002,NA,NA,NA,NA,NA,NA,NA,NA,NA,2,16,36,31,14,5,1,NA,NA
"1021","08LAK3627","08LAK3627_18",12003,11,NA,NA,2,3,5,11,19,34,18,6,1,NA,NA,NA,NA,NA,NA
"1031","08LAK3628","08LAK3628_18",12401,24,NA,1,3,4,10,14,13,20,9,14,11,3,NA,NA,NA,NA,NA
"1041","08NOR1370","08NOR1370_18",10401,9,0,1,2,3,4,20,24,27,17,17,2,0,1,0,1,0,0
"1051","08CED5046","08CED5046_18",10402,1,2,3,2,5,9,7,7,4,21,15,15,9,9,23,8,4,0
"1061","08NOR2306","08NOR2306_18",10403,0,0,0,0,1,2,8,15,29,39,15,1,1,NA,NA,NA,NA,NA
"1071","08NOR1362","08NOR1362_18",10404,23,0,0,0,0,0,0,0,3,9,21,29,22,5,0,0,0,0
"1081","08EAS1536","08EAS1536_18",10405,10,1,0,0,1,1,4,10,14,21,34,15,3,0,0,0,0,0
"1091","08LIT2781","08LIT2781_18",10406,0,0,0,0,2,5,21,36,36,15,17,0,0,0,0,0,0,0
"1101","07LMS103591","07LMS103591_18",10407,0,0,0,0,0,0,0,0,0,2,11,4,10,12,17,23,23,11
"1111","07SFS041891","07SFS041891_18",10408,0,0,0,1,0,0,0,3,11,17,25,29,17,15,14,9,1,0
"1121","07SFS011475","07SFS011475_18",10409,0,1,0,0,0,3,1,9,5,15,25,27,19,14,12,3,1,1
"1131","BSE_8_268hAveSE","BSE_8_268hAveSE_18",13601,24,1,1,3,3,3,8,13,27,28,6,1,0,0,0,0,0,0
"1141","08NOR2115","08NOR2115_18",14001,11,NA,1,5,3,8,21,14,39,23,17,2,4,NA,NA,NA,NA,NA
"1151","08WES1579","08WES1579_18",13602,6,2,0,1,4,5,14,9,19,13,7,8,7,4,1,0,0,0
"1161","08LIT2685","08LIT2685_18",13603,5,NA,1,NA,2,4,7,4,26,32,29,6,1,NA,NA,NA,NA,NA
"1171","08SAM2674","08SAM2674_18",14801,33,2,3,6,5,7,8,10,17,11,6,3,1,NA,NA,NA,NA,NA
"1181","08WES1490","08WES1490_18",15201,26,2,1,5,10,6,25,18,13,3,6,NA,NA,NA,NA,NA,NA,NA
"1191","08LAK2827","08LAK2827_18",15202,25,7,2,4,4,11,17,13,8,9,8,0,1,1,2,NA,NA,NA
"1202","08LAK3540","08LAK3540_18",15203,6,1,5,5,5,8,14,20,23,16,7,1,NA,NA,NA,NA,NA,NA
"1211","08LAK3699","08LAK3699_18",15204,3,0,1,6,18,25,25,26,30,11,5,NA,NA,NA,NA,NA,NA,NA
"1221","08SAM3045","08SAM3045_18",15205,11,3,8,6,8,13,23,17,11,8,9,7,NA,NA,NA,NA,NA,NA
"1231","08SAM2862","08SAM2862_18",15206,7,0,4,5,9,18,21,18,12,7,3,NA,NA,NA,NA,NA,NA,NA
"1241","08LAK3121","08LAK3121_18",15208,6,NA,NA,3,8,21,16,23,18,13,6,1,NA,NA,NA,NA,NA,NA
"1251","07GRN077319","07GRN077319_18",15209,4,NA,4,7,2,3,7,5,11,14,15,14,15,6,6,1,1,NA
"1261","09SOO1283","09SOO1283_18",15601,8,1,3,4,10,23,19,21,25,11,5,NA,3,3,2,1,NA,NA
"1271","09SOO1209","09SOO1209_18",15210,7,1,2,2,7,8,10,20,16,21,6,4,5,5,NA,NA,NA,NA
"1281","09MID1744","09MID1744_18",15602,1,NA,NA,NA,2,3,6,2,5,10,15,22,22,7,11,1,NA,NA
"1291","09SOO1130","09SOO1130_18",15211,3,NA,NA,NA,2,3,1,4,8,28,24,27,11,5,3,NA,NA,NA
"1301","07TKL047047","07TKL047047_18",15603,3,NA,NA,NA,4,5,7,9,4,17,18,19,10,2,4,1,2,NA
"1311","09JEN1357","09JEN1357_18",15604,13,5,5,9,12,11,10,11,9,10,11,8,2,NA,NA,NA,NA,NA
"1321","08LAK3880","08LAK3880_18",15212,12,2,2,1,7,11,14,11,15,8,9,10,4,NA,2,NA,NA,NA
"1331","09JEN1318","09JEN1318_18",15213,32,5,7,NA,5,6,7,4,7,11,18,8,2,NA,1,NA,NA,NA
"1341","08SAM3047","08SAM3047_18",15214,12,3,1,3,7,9,19,31,19,8,12,NA,1,NA,NA,NA,NA,NA
"1351","08SAM1914","08SAM1914_18",15215,11,2,2,2,2,4,7,8,23,26,11,6,6,NA,NA,NA,NA,NA
"1361","07HAR025863","07HAR025863_18",15217,14,3,2,4,10,15,18,11,12,8,10,5,6,3,NA,NA,NA,NA
"1371","VashChris","VashChris_18",15606,38,5,2,6,22,15,15,8,5,2,NA,NA,NA,NA,NA,NA,NA,NA
"1381","07PAT231079","07PAT231079_18",15607,9,3,4,6,10,7,14,15,16,8,8,6,6,1,NA,NA,NA,NA
"1391","08BEA3312","08BEA3312_18",15218,17,4,4,7,8,12,20,20,17,13,11,2,1,NA,NA,NA,NA,NA
"1401","28A","28A_18",15219,5,NA,1,4,8,10,23,38,21,10,2,NA,NA,NA,NA,NA,NA,NA
"1411","VashShing","VashShin_18",15221,15,4,2,7,4,12,20,14,11,17,15,3,NA,NA,NA,NA,NA,NA
"1421","08BEA3737","08BEA3737_18",15608,NA,NA,3,3,4,15,27,35,18,2,NA,NA,NA,NA,NA,NA,NA,NA
"1431","08BEA3321","08BEA3321_18",15222,34,5,4,8,11,18,13,19,25,8,3,1,NA,NA,NA,NA,NA,NA
"1441","08BEA3747","08BEA3747_18",15609,2,3,1,2,4,13,12,27,12,21,15,2,1,NA,NA,NA,NA,NA
"1451","08BEA3650","08BEA3650_18",15223,3,3,NA,3,8,15,19,23,23,19,7,15,5,NA,NA,NA,NA,NA
"1461","07PAT001415","07PAT001415_18",16001,19,2,NA,1,5,4,19,15,20,13,10,5,5,NA,NA,NA,NA,NA
"1471","07PAT166087","07PAT166087_18",16002,7,NA,3,4,8,7,14,23,21,20,11,NA,NA,NA,NA,NA,NA,NA
"1481","07CHR045515","07CHR045515_18",16005,4,2,2,NA,1,2,2,4,4,4,7,18,16,17,9,9,NA,NA
"1491","09NEW2128","09NEW2128_18",13203,1,2,0,3,6,2,10,7,13,24,21,10,5,0,0,1,0,0
"1501","09COV1418","09COV1418_18",13204,0,0,0,2,1,1,0,9,11,28,23,17,10,4,2,0,0,0
"1511","07LNT075179","07LNT075179_18",13205,3,0,1,4,4,8,7,4,8,5,8,10,13,4,7,14,8,0
"1521","07RAG002867","07RAG002867_18",13202,2,1,2,2,3,5,4,7,10,13,7,3,6,13,12,7,0,3
"1531","07RAG022147","07RAG022147_18",13201,6,1,5,7,8,9,5,9,14,15,7,3,4,2,3,8,2,0
"1541","09LOW0751","09LOW0751_18",14401,NA,NA,NA,1,NA,NA,4,5,9,24,25,21,8,3,NA,NA,NA,NA
"1551","07RAG004615","07RAG004615_19",16801,NA,1,1,1,1,2,3,4,6,11,11,12,13,14,6,3,18,8
"1561","08ISS4294","08ISS4294_19",18001,2,0,1,2,3,7,13,12,16,13,13,10,5,8,6,NA,NA,NA
"1571","08LIT2781","08LIT2781_19",18004,1,0,0,0,3,10,17,35,31,10,5,1,NA,NA,NA,NA,NA,NA
"1581","08NOR2306","08NOR2306_19",18005,2,0,2,1,0,9,18,18,23,21,14,5,NA,NA,1,NA,NA,NA
"1591","09DUW0091","09DUW0091_19",18006,5,1,3,4,6,8,6,15,21,10,7,11,10,2,2,NA,NA,NA
"1601","08ISS4730","08ISS4730_19",17601,5,1,0,1,0,6,4,5,14,21,17,23,10,9,1,NA,NA,NA
"161","08ISS4884","08ISS4884_19",17602,2,3,2,3,4,2,4,10,12,10,12,11,16,9,3,1,NA,NA
"162","08CED4192","08CED4192_19",18002,10,0,1,3,8,7,13,22,16,13,13,17,10,1,1,1,NA,NA
"163","08ISS4735","08ISS4735_19",18003,5,4,5,2,2,6,16,13,15,16,7,4,2,6,1,NA,NA,NA
"164","07RAG043443","07RAG043443_19",18404,1,2,1,3,8,10,5,14,14,15,14,8,7,12,5,4,2,NA
"165","07RAG002867","07RAG002867_19",18802,2,1,3,4,8,10,18,20,25,13,6,6,4,1,NA,6,NA,NA
"166","08BEA3650","08BEA3650_19",18804,4,5,2,7,3,11,11,10,19,12,14,10,4,1,NA,NA,NA,NA
"167","08CED2518","08CED2518_19",18405,6,1,1,3,5,14,11,16,22,3,6,5,4,3,NA,NA,NA,NA
"168","08CED2711","08CED2711_19",18406,1,NA,NA,NA,3,4,15,27,19,11,12,3,4,2,NA,2,1,NA
"169","09NEW1657","09NEW1657_19",18402,NA,1,2,NA,3,5,3,6,10,4,23,16,22,9,5,3,NA,NA
"170","09DUW0225","09DUW0225_19",22001,1,1,2,4,4,3,15,16,17,27,6,6,5,0,2,4,0,0
"171","07CHR045515","07CHR045515_19",18401,NA,NA,1,2,1,10,5,9,8,4,16,14,10,6,8,10,NA,NA
"172","08EVA3637","08EVA3637_19",18801,4,1,1,2,13,14,15,26,15,10,5,2,NA,NA,NA,NA,NA,NA
"173","08EVA3642","08EVA3642_19",18407,4,NA,1,NA,8,7,8,10,11,9,9,7,14,7,1,2,NA,NA
"174","07LMS033235","07LMS033235_19",19201,8,5,2,2,10,12,21,20,13,7,11,5,2,NA,NA,NA,NA,NA
"175","08ISS3962","08ISS3962_19",19202,4,2,3,8,4,5,7,10,12,14,16,7,6,2,NA,NA,NA,NA
"176","08EAS1536","08EAS1536_19",19603,3,2,1,1,8,18,15,22,22,14,2,1,NA,NA,NA,NA,NA,NA
"177","09MID1817","09MID1817_19",19604,NA,NA,NA,NA,2,6,5,19,28,29,7,6,4,NA,NA,NA,NA,NA
"178","08WES0905","08WES0905_19",19203,4,2,2,4,12,6,28,19,19,7,7,1,1,NA,NA,NA,NA,NA
"179","07RAG022147","07RAG022147_19",19601,3,1,1,1,3,8,19,26,16,10,13,2,3,3,1,NA,NA,NA
"180","08WES1178","08WES1178_19",19602,4,NA,1,4,6,10,13,18,18,12,13,2,2,1,NA,NA,NA,NA
"181","09SOO1130","09SOO1130_19",20401,4,NA,1,NA,1,2,1,6,23,33,33,16,2,NA,NA,NA,NA,NA
"182","09DUW0277","09DUW0277_19",20402,17,NA,NA,3,4,9,14,14,13,9,10,5,1,1,NA,NA,NA,NA
"183","09SOO1134","09SOO1134_19",22401,NA,1,NA,NA,1,2,8,13,13,13,19,8,12,15,4,4,NA,NA
"184","07CHR234411","07CHR234411_19",24006,3,3,3,2,6,5,9,21,9,17,17,20,5,2,3,2,2,0
"185","Miller_SWSSD","Miller_SWSSD_19",24003,6,1,3,6,3,3,17,19,19,21,18,8,5,0,0,0,0,0
"186","08WES1340","08WES1340_19",24004,1,0,2,2,4,5,23,17,16,6,3,8,8,3,1,4,0,0
"187","07STL080295","07STL080295_19",24005,0,1,0,3,1,0,4,10,9,28,31,26,13,8,1,0,0,4
"188","Miller_Cove","Miller_Cove_19",24001,0,0,2,5,10,11,26,27,14,7,0,0,0,0,0,0,0,0
"189","WalkerPreserve","WalkerPreserve_19",24002,47,3,1,4,10,9,26,14,4,3,0,0,0,0,0,0,0,0
"190","09LOW0751","09LOW0751_19",24405,0,0,0,2,5,4,10,14,27,22,13,8,7,0,1,NA,NA,NA
"191","08SAM2865","08SAM2865_19",24804,21,3,5,6,11,13,18,13,7,11,9,6,2,0,0,0,0,0
"192","08LAK3628","08LAK3628_19",24402,19,3,2,2,2,6,9,14,12,14,9,9,7,3,1,0,0,0
"193","08NOR1370","08NOR1370_19",24403,23,1,0,3,2,0,9,8,15,14,15,13,7,3,0,0,0,0
"194","08LAK3540","08LAK3540_19",24404,1,1,0,0,2,4,15,20,26,14,19,1,1,0,0,0,0,0
"195","07PAT166087","07PAT166087_19",24802,28,0,1,1,0,3,7,16,25,17,9,2,0,0,0,0,0,0
"196","09LOW0753","09LOW0753_19",24803,54,NA,NA,NA,NA,NA,1,NA,3,21,26,NA,NA,1,NA,NA,NA,NA
"197","07HAR025863","07HAR025863_19",24401,4,3,2,6,6,8,11,17,11,5,18,7,5,7,0,0,0,0
"198","07GRN022903","07GRN022903_19",24801,0,0,0,0,2,1,4,4,16,11,28,26,12,3,0,0,0,0
"199","07PAT187623","07PAT187623_19",25201,47,4,4,6,12,25,13,1,NA,NA,NA,NA,NA,NA,NA,NA,NA,NA
"200","09SOO1022","09SOO1022_18",16012,3,NA,NA,2,2,4,8,19,22,21,16,11,5,5,1,NA,1,NA
"201","08CED4975","08CED4975_19",17203,18,1,1,1,8,17,16,20,9,7,2,2,1,NA,NA,NA,NA,NA
"202","08CED5046","08CED5046_19",17204,1,0,2,1,3,2,3,4,5,9,8,6,10,15,5,21,7,2
"203","08SAM2855","08SAM2855_19",17205,8,3,4,8,9,14,11,8,9,10,9,6,8,NA,NA,NA,NA,NA
"204","07LMS055075","07LMS055075_19",17201,1,1,0,0,2,3,12,21,28,22,21,10,5,1,1,1,0,0
"205","07SFS066611","07SFS066611_19",17202,14,9,12,17,5,10,17,9,9,5,7,4,0,0,0,0,0,0
"206","08CED5032","08CED5032_19",17206,0,3,1,3,4,7,13,8,7,10,11,10,5,10,7,13,1,NA
"207","07RAG018227","07RAG018227_19",17207,2,1,NA,3,2,2,5,10,16,17,18,21,10,7,2,7,NA,NA
"208","07PAT231079","07PAT231079_19",25604,13,3,3,5,6,5,12,13,13,10,8,9,5,5,3,0,0,0
"209","09JEN1318","09JEN1318_19",25601,29,2,2,4,2,16,10,12,8,6,11,7,3,2,1,1,0,0
"210","07CHR070059","07CHR070059_19",30001,6,10,10,9,7,9,16,10,11,11,6,6,3,4,NA,NA,NA,NA
"211","09LOW0325","09LOW0325_19",25607,NA,4,7,6,10,7,11,13,11,21,13,6,2,NA,NA,NA,NA,NA
"212","08ISS4724","08ISS4724_19",31201,17,NA,NA,NA,3,8,17,12,23,21,6,NA,NA,NA,NA,NA,NA,NA
"213","BSE_21_GolfCrs","BSE_21_GolfCrs_19",26001,NA,NA,NA,NA,NA,4,2,15,12,19,23,16,13,6,2,NA,NA,NA
"214","09NEW2128","09NEW2128_19",25603,NA,NA,NA,NA,NA,NA,5,13,14,27,29,16,5,3,NA,NA,NA,NA
"215","09DEE2208","09DEE2208_19",26002,0,1,2,2,1,5,4,11,15,17,23,14,11,6,3,0,0,0
"216","09BLA0768","09BLA0768_19",25602,10,1,0,1,1,4,5,22,23,27,10,6,3,0,0,0,0,0
"217","09COV1165","09COV1165_19",26407,2,0,1,1,3,4,3,1,12,20,26,20,12,14,5,4,0,0
"218","07SFS041891","07SFS041891_19",26403,5,1,1,0,2,1,2,11,13,18,21,22,14,13,5,5,1,0
"219","07PAT001415","07PAT001415_19",26405,8,0,1,1,3,1,11,16,14,10,16,11,9,3,0,0,0,0
"220","08EAS2446","08EAS2446_19",26801,4,0,1,0,4,7,8,20,13,20,12,16,5,3,0,0,0,0
"221","08LAK2827","08LAK2827_19",26401,21,4,3,11,11,10,14,20,13,5,1,2,0,0,0,0,0,0
"222","08EAS2540","08EAS2540_19",26402,2,2,5,5,8,13,13,13,10,12,6,5,3,3,0,0,0,0
"223","08WES1037","08WES1037_19",27201,54,1,2,7,11,9,5,10,8,5,2,0,2,0,0,0,0,0
"224","08EVA3640","08EVA3640_19",27202,6,1,3,3,3,5,11,9,11,22,17,17,9,3,2,0,0,0
"225","08EAS2191","08EAS2191_19",27203,10,1,1,2,14,18,42,26,13,5,NA,NA,NA,NA,NA,NA,NA,NA
"226","08SAM1914","08SAM1914_19",29601,5,NA,NA,1,NA,6,8,14,17,24,20,7,4,1,NA,NA,NA,NA
"227","09BLA0716","09BLA0716_19",29205,5,1,1,2,4,10,8,20,20,20,9,4,1,2,NA,NA,NA,NA
"228","08LIT2602","08LIT2602_19",29201,14,NA,3,3,13,19,22,16,10,NA,NA,NA,NA,NA,NA,NA,NA,NA
"229","08LIT2692","08LIT2692_19",29203,3,2,1,2,7,10,18,15,16,18,9,7,2,NA,NA,NA,NA,NA
"230","08LIT2603","08LIT2603_19",30401,9,3,0,5,4,5,10,11,16,10,14,12,1,1,3,NA,NA,NA
"231","09NEW2076","09NEW2076_19",30003,10,2,2,5,13,14,20,24,16,8,2,0,1,NA,NA,NA,NA,NA
"232","07GRN077319","07GRN077319_19",30403,2,NA,NA,NA,2,3,2,3,10,11,20,16,16,16,2,1,NA,NA
"233","09MID1537","09MID1537_19",30404,24,1,0,2,3,3,13,11,13,15,12,4,NA,NA,NA,NA,NA,NA
"234","09SOO1209","09SOO1209_19",30405,27,2,6,4,9,11,10,11,9,12,4,5,2,2,NA,NA,NA,NA
"235","08EAS2272","08EAS2272_19",30004,1,NA,NA,NA,1,1,1,7,1,7,14,16,21,20,4,9,NA,2
"236","09BLA0675","09BLA0675_19",30005,3,1,0,3,8,3,7,22,19,20,16,8,1,NA,NA,NA,NA,NA
"237","07TKL072439","07TKL072439_19",20001,3,3,6,9,12,13,17,13,9,8,11,1,1,NA,4,2,1,NA
"238","09COV1862","09COV1862_19",22801,3,1,0,0,6,13,30,29,13,10,3,1,0,0,0,0,0,0
"239","08SAM2674","08SAM2674_19",23202,20,2,3,5,12,10,20,18,12,2,0,0,0,0,0,0,0,0
"240","08ISS4748","08ISS4748_19",23205,3,0,2,1,3,5,4,5,7,10,9,25,12,10,4,3,2,0
"241","07TKL047047","07TKL047047_19",22803,1,3,9,17,17,19,27,12,16,13,23,13,18,2,0,2,0,1
"242","09COV1756","09COV1756_19",23206,23,2,4,8,8,4,3,2,5,10,12,10,8,9,2,2,NA,NA
"243","09COV1864","09COV1864_19",23601,3,NA,NA,3,4,4,5,8,12,11,10,14,5,NA,NA,9,12,NA
"244","08LAK3879","08LAK3879_19",23204,9,8,5,8,9,9,16,14,20,14,6,4,4,0,0,0,0,0
"245","09DEE2211","09DEE2211_19",23201,3,0,1,5,4,2,13,16,13,12,7,11,11,6,1,1,1,0
"246","08NOR1362","08NOR1362_19",23203,35,0,0,0,1,9,16,21,27,34,31,14,9,5,0,0,0,0
"247","09COV1418","09COV1418_19",27601,0,1,2,0,4,2,13,15,14,23,25,11,9,1,NA,NA,NA,NA
"248","09BLA0771","09BLA0771_19",27602,NA,NA,1,1,NA,8,9,29,37,18,13,3,3,NA,NA,NA,NA,NA
"249","09SOO1022","09SOO1022_19",27603,NA,NA,NA,NA,1,1,10,4,7,37,21,17,16,1,NA,NA,NA,NA
"250","07HAR070087","07HAR070087_19",27604,32,2,2,1,2,9,19,15,18,6,NA,NA,NA,NA,NA,NA,NA,NA
"251","08LAK3627","08LAK3627_19",27605,2,0,2,4,3,7,11,28,23,18,6,1,NA,NA,NA,NA,NA,NA
"252","09NEW2102","09NEW2102_19",30007,15,NA,5,6,7,6,20,19,12,14,10,4,NA,NA,NA,NA,NA,NA
"253","09MIL0390","09MIL0390_19",30008,4,0,0,1,1,2,5,10,14,25,23,12,9,3,NA,NA,NA,NA
"254","09JEN1357","09JEN1357_19",30009,4,0,3,4,6,17,16,19,7,14,10,7,2,0,1,1,0,0
"255","09MID2426","09MID2426_19",30408,3,NA,1,2,4,7,12,16,23,16,10,9,4,NA,NA,NA,NA,NA
"256","07PAT228627","07PAT228627_19",30409,33,4,3,3,4,13,16,22,18,17,3,1,4,NA,NA,NA,NA,NA
"257","09DEE2294","09DEE2294_19",30410,1,NA,NA,1,3,6,4,7,9,19,19,23,7,9,4,3,NA,NA
"258","08EAS2631","08EAS2631_19",30411,1,1,1,0,1,6,10,11,21,25,13,13,6,1,2,1,NA,NA
"259","07SFS009443","07SFS009443_19",30803,2,2,1,0,2,0,5,4,7,16,28,16,18,24,19,7,7,NA
"260","08LAK3121","08LAK3121_19",25606,1,0,0,1,4,4,10,6,12,15,20,15,13,6,1,0,0,0
"261","09MIL0340","09MIL0340_19",25605,1,0,1,0,2,2,7,15,13,17,17,10,17,10,3,1,NA,NA
"262","07LNT163403","07LNT163403_19",31601,NA,1,1,2,2,3,4,4,8,12,19,10,9,12,10,3,1,NA
"263","09MID1958","09MID1958_19",32001,3,3,2,3,2,3,12,10,7,17,15,16,15,5,3,1,NA,NA
"264","08SAM3045","08SAM3045_19",32002,11,3,3,12,9,9,17,8,16,12,5,1,NA,NA,NA,NA,NA,NA
"265","08BEA3826","08BEA3826_19",32401,4,7,6,4,5,6,9,7,19,15,16,8,8,1,NA,NA,NA,NA
"266","08BEA3914","08BEA3914_19",32402,2,7,1,3,11,7,16,13,23,18,4,6,3,NA,NA,NA,NA,NA
"267","07LMS103591","07LMS103591_19",32004,1,3,1,2,NA,3,3,5,8,7,7,7,7,7,8,15,18,5
"268","07LMS093027","07LMS093027_19",32006,NA,NA,NA,NA,NA,NA,NA,NA,NA,NA,8,6,13,19,19,35,37,2
"269","08SAM3047","08SAM3047_19",32005,2,2,2,7,9,14,22,28,14,1,1,NA,2,NA,NA,NA,NA,NA
"270","07SFS011475","07SFS011475_19",32403,2,NA,NA,NA,NA,NA,5,1,4,4,9,29,21,18,11,9,1,NA
"271","08LAK3880","08LAK3880_19",32404,NA,1,2,8,7,12,17,15,14,15,9,5,5,NA,NA,NA,NA,NA
"272","08WES0622","08WES0622_19",32405,16,5,6,11,18,20,23,6,2,1,NA,NA,NA,1,NA,NA,NA,NA
"273","07SFS011059","07SFS011059_19",32406,NA,NA,2,4,5,4,8,14,15,21,18,11,16,4,1,NA,NA,NA
"274","09SOO1283","09SOO1283_19",32007,62,4,3,5,3,6,7,18,2,2,NA,NA,NA,NA,NA,1,NA,NA
"275","08ISS3958","08ISS3958_19",32407,NA,NA,5,5,20,28,26,15,9,2,NA,2,NA,NA,NA,NA,NA,NA
"276","08EVA3813","08EVA3813_19",32008,10,7,6,14,12,13,14,16,13,8,5,1,NA,NA,NA,NA,NA,NA
"277","08LAK3699","08LAK3699_19",32009,2,0,2,2,3,3,7,4,17,22,23,21,12,NA,NA,NA,NA,NA
"278","08ISS4573","08ISS4573_19",32408,1,1,2,4,5,3,13,8,19,22,21,15,7,2,NA,NA,NA,NA
"279","08SAM0000","08SAM0000_19",32409,17,3,7,6,15,16,18,19,16,4,NA,NA,NA,NA,NA,NA,NA,NA
"280","09BLA0817","09BLA0817_19",32011,NA,NA,4,9,14,25,31,22,13,3,NA,NA,NA,NA,NA,NA,NA,NA
"281","VashShing","VashShin_19",32010,8,11,5,8,19,17,18,5,12,15,11,1,NA,NA,NA,NA,NA,NA
"282","08LIT2585","08LIT2585_19",32012,3,1,1,NA,6,10,10,33,32,16,14,3,NA,NA,NA,NA,NA,NA
"283","08LIT2682","08LIT2682_19",20806,3,2,NA,1,1,2,4,14,16,25,41,5,NA,NA,NA,NA,NA,NA
"284","08BEA3571","08BEA3571_19",20807,5,0,2,5,7,8,8,12,21,8,8,5,2,8,2,1,NA,NA
"285","08BEA3312","08BEA3312_19",21202,21,3,6,8,3,13,15,14,11,13,5,1,NA,1,NA,NA,NA,NA
"286","08NOR1750","08NOR1750_19",20805,5,0,6,7,11,17,37,36,14,7,1,1,NA,NA,NA,NA,NA,NA
"287","08BEA3474","08BEA3474_19",21203,14,NA,3,3,NA,1,5,7,12,21,20,10,3,4,3,NA,NA,NA
"288","08BEA3747","08BEA3747_19",21204,4,2,5,4,6,14,37,24,29,19,3,1,1,1,NA,NA,NA,NA
"289","09MID1374","09MID1374_19",21601,2,2,1,6,2,3,10,18,20,22,13,10,3,1,NA,NA,NA,NA
"290","08CED2898","08CED2898_19",20801,37,2,4,3,6,14,20,17,NA,NA,NA,NA,NA,1,NA,NA,NA,NA
"291","08EAS2546","08EAS2546_19",20802,7,2,0,0,4,2,10,13,16,24,12,12,0,0,1,NA,NA,NA
"292","08ISS3877","08ISS3877_19",21201,11,1,1,4,9,8,5,12,20,17,5,NA,NA,NA,NA,NA,NA,NA
"293","08BEA3737","08BEA3737_19",20803,2,5,4,15,18,47,36,19,5,1,NA,NA,NA,NA,NA,NA,NA,NA
"294","08EAS1964","08EAS1964_19",20804,9,3,1,6,5,8,22,18,21,14,11,8,1,NA,NA,NA,NA,NA
"295","VashChris","VashChris_19",32013,20,7,8,16,16,16,19,7,8,1,NA,NA,NA,NA,NA,NA,NA,NA
"296","08SAM2862","08SAM2862_19",32411,6,NA,3,4,8,12,23,17,13,14,7,4,NA,NA,NA,NA,NA,NA
"297","08EAS2058","08EAS2058_19",32410,NA,NA,1,NA,5,11,15,15,10,19,24,19,11,1,NA,NA,NA,NA
"298","07LMS026663","07LMS026663_19",32413,NA,NA,NA,NA,NA,NA,1,1,2,3,3,8,9,8,14,26,33,4
"299","28A","28A_19",32014,2,NA,1,8,6,11,22,18,28,11,1,1,NA,NA,NA,NA,NA,NA
"300","08WES0903","08WES0903_19",32015,4,1,2,3,5,5,9,25,23,18,6,1,NA,NA,NA,NA,NA,NA
"301","09MID1744","09MID1744_19",32414,2,NA,NA,1,4,7,12,7,14,18,16,15,10,4,3,1,NA,NA
"302","08BEA3321","08BEA3321_19",32016,25,2,2,6,10,15,10,25,6,6,NA,NA,NA,NA,NA,NA,NA,NA
"303","08CED2898","08CED2898_20",32802,39,5,2,5,7,13,15,6,3,1,0,1,5,0,0,0,0,0
"304","09BLA0675","09BLA0675_20",33205,0,0,1,2,5,5,8,10,17,30,18,10,1,1,0,0,0,0
"305","07PAT231079","07PAT231079_20",34003,5,1,1,3,5,10,14,16,6,5,16,9,5,2,4,0,0,0
"306","08SAM2855","08SAM2855_20",34001,5,3,3,5,8,11,15,16,15,10,8,10,3,3,0,0,0,0
"307","08NOR1750","08NOR1750_20",34002,5,1,2,6,7,9,15,23,14,11,7,1,0,0,0,0,0,0
"308","08BEA3650","08BEA3650_20",33201,2,0,1,1,4,2,8,12,7,19,17,15,11,2,0,0,0,0
"309","09MID1374","09MID1374_20",34803,11,1,0,3,4,3,10,17,15,8,26,4,2,0,0,0,0,0
"310","08CED4192","08CED4192_20",34804,0,1,1,2,2,5,3,3,8,9,11,18,12,19,4,5,1,0
"311","08CED2711","08CED2711_20",34805,4,4,2,1,10,3,14,16,17,18,9,3,4,0,0,0,0,0
"312","09BLA0716","09BLA0716_20",34801,6,6,2,2,2,9,9,12,15,16,14,4,9,6,1,1,0,0
"313","09COV1418","09COV1418_20",34802,0,0,0,0,2,0,1,5,12,25,35,11,11,4,0,0,0,0
"314","08ISS4730","08ISS4730_20",35205,5,1,0,1,4,2,7,14,15,10,16,13,10,11,0,0,0,0
"315","07TKL072439","07TKL072439_20",35203,0,0,0,0,0,4,6,7,20,20,24,11,8,6,2,0,0,0
"316","08ISS4735","08ISS4735_20",35204,0,7,2,2,11,10,8,16,12,10,8,8,2,4,0,0,0,0
"317","09BLA0771","09BLA0771_20",35201,0,1,2,2,14,10,22,11,18,13,10,4,3,2,0,0,0,0
"318","09BLA0772","09BLA0772_20",35202,0,4,0,1,5,9,11,6,11,27,11,10,6,4,0,0,0,0
"319","08CED2433","08CED2433_20",36001,0,0,0,2,2,5,10,17,11,12,18,20,5,5,3,3,1,0
"320","09BLA0722","09BLA0722_20",36002,0,0,0,1,3,1,15,17,28,16,17,6,1,0,0,0,0,0
"321","09DEE2208","09DEE2208_20",36807,6,0,0,1,0,2,3,4,12,17,15,25,13,3,0,0,0,0
"322","09NEW2102","09NEW2102_20",36805,4,1,1,0,1,5,7,16,16,21,21,9,0,0,0,0,0,0
"323","09DEE2211","09DEE2211_20",36806,4,0,0,1,2,3,2,2,6,13,22,23,18,6,3,1,1,0
"324","09SOO1134","09SOO1134_20",36803,10,0,1,3,3,2,1,4,3,6,12,14,16,13,5,3,0,1
"325","08BEA3571","08BEA3571_20",33202,6,2,2,5,1,1,11,17,20,15,9,6,2,5,7,0,0,0
"326","08ISS4294","08ISS4294_20",36801,11,2,1,1,0,0,4,5,5,12,21,15,16,6,2,5,1,0
"327","08ISS4724","08ISS4724_20",36802,3,0,0,0,2,8,8,27,23,24,7,0,0,0,0,0,0,0
"328","09MID1817","09MID1817_20",38413,5,0,0,3,0,8,26,28,10,8,5,4,3,0,0,0,0,0
"329","08SAM2865","08SAM2865_20",38414,25,0,1,4,2,7,10,8,9,7,11,16,3,1,0,0,0,0
"330","08EVA3640","08EVA3640_20",33203,15,0,0,1,1,1,3,3,9,9,15,16,10,12,9,0,0,0
"331","08WES0629","08WES0629_19",28001,1,0,2,2,0,1,3,13,31,26,27,9,0,1,NA,NA,NA,NA
"332","08CED2433","08CED2433_19",28401,NA,NA,1,3,4,5,11,9,17,18,20,18,11,2,1,3,1,3
"333","08WES1490","08WES1490_19",28402,15,2,2,7,5,16,19,29,14,2,NA,NA,NA,NA,NA,NA,NA,NA
"334","07LNT075179","07LNT075179_19",28801,NA,NA,NA,NA,1,3,2,14,10,21,12,10,6,9,4,2,4,2
"335","BSE_1_MudMtnRd","BSE_1_MudMtnRd_20",37601,0,0,0,2,1,7,7,17,11,23,34,12,8,1,2,0,0,0
"336","BSE_21_GolfCrs","BSE_21_GolfCrs_20",37602,0,0,5,4,2,3,5,7,6,8,15,32,15,9,2,0,0,0
"337","BSE_8_268hAveSE","BSE_8_268hAveSE_20",37603,18,0,0,0,0,11,22,30,28,24,8,1,0,0,0,0,0,0
"338","09SOO1130","09SOO1130_20",37604,4,0,1,0,2,1,2,1,7,10,23,24,19,5,2,0,0,0
"339","07RAG022147","07RAG022147_20",37605,0,1,3,4,7,7,13,7,7,10,13,7,12,4,1,4,0,0
"340","07SFS041891","07SFS041891_20",37606,2,0,0,0,0,0,0,0,8,14,25,19,10,16,5,7,1,1
"341","07LNT130827","07LNT130827_20",37607,0,0,0,0,0,1,2,4,6,17,23,24,12,12,4,4,1,0
"342","WalkerPreserve","WalkerPreserve_20",37608,31,3,1,8,15,21,12,13,3,0,0,0,0,0,0,0,0,0
"343","Miller_SWSSD","Miller_SWSSD_20",37609,1,0,2,2,8,7,16,24,11,14,11,6,2,0,0,0,0,0
"344","Miller_Cove","Miller_Cove_20",37610,13,3,5,11,15,26,22,10,1,2,0,0,0,0,0,0,0,0
"345","09JEN1357","09JEN1357_20",37611,0,0,0,0,1,0,5,4,18,18,31,20,4,6,2,1,0,0
"346","08LAK3628","08LAK3628_20",37612,0,1,1,5,3,5,7,8,15,25,17,9,4,0,1,1,0,0
"347","09BLA0768","09BLA0768_20",37613,12,1,1,1,5,10,16,25,21,10,8,0,0,0,0,0,0,0
"348","08EAS1964","08EAS1964_20",37614,0,0,0,1,0,2,0,18,18,12,24,18,6,1,0,0,0,0
"349","09DEE2163","09DEE2163_20",37615,6,0,1,2,3,7,12,12,16,21,11,10,0,0,1,0,0,0
"350","09DUW0277","09DUW0277_20",37616,29,1,3,3,9,13,8,12,10,5,7,2,0,0,0,0,0,0
"351","09LOW0325","09LOW0325_20",37617,0,1,0,1,1,6,3,10,21,24,23,9,4,0,2,0,0,0
"352","08LAK3121","08LAK3121_20",38001,3,0,4,2,8,8,10,17,13,17,8,14,1,0,1,0,0,0
"353","08LIT2682","08LIT2682_20",37618,0,1,0,0,1,4,7,24,24,22,13,4,0,0,0,0,0,0
"354","08LIT2692","08LIT2692_20",37619,1,0,2,1,0,3,11,17,15,17,17,13,4,0,1,0,0,0
"355","07LMS033235","07LMS033235_20",37620,32,0,1,2,3,5,3,16,10,10,17,2,2,0,0,0,0,0
"356","08EAS1536","08EAS1536_20",38002,0,0,3,1,6,6,11,21,21,18,18,10,3,0,0,0,0,0
"357","08LIT2685","08LIT2685_20",37621,24,3,4,4,16,10,19,10,3,2,1,5,3,0,0,0,0,0
"358","08LAK2827","08LAK2827_20",37623,7,1,2,2,6,8,20,17,19,11,4,3,2,1,1,0,0,0
"359","09COV1756","09COV1756_20",37624,23,2,0,5,5,15,10,7,6,13,4,3,3,3,0,2,0,0
"360","08EVA3637","08EVA3637_20",37622,59,1,0,3,3,4,5,1,10,5,5,4,1,0,0,0,0,0
"361","08BEA3747","08BEA3747_20",38003,0,1,0,2,1,7,15,21,19,14,11,12,1,1,0,0,0,0
"362","08EAS2191","08EAS2191_20",37625,8,3,5,5,12,24,21,13,7,2,1,0,0,0,0,0,0,0
"363","08EVA3642","08EVA3642_20",38004,1,0,1,5,7,7,11,11,20,15,10,11,6,3,0,0,0,0
"364","08SAM2674","08SAM2674_20",37626,12,0,2,8,14,7,20,16,10,10,4,1,0,0,0,0,0,0
"365","08LIT2781","08LIT2781_20",37627,6,0,1,5,9,10,18,21,19,13,0,0,0,0,0,0,0,0
"366","08NOR2306","08NOR2306_20",38404,2,0,1,0,1,7,10,25,19,17,14,3,1,0,0,0,0,0
"367","09COV1862","09COV1862_20",38403,2,0,1,2,4,9,22,19,29,12,3,6,0,0,0,0,0,0
"368","09DUW0091","09DUW0091_20",38405,3,0,3,4,4,8,8,9,16,13,14,12,7,3,0,0,0,0
"369","08ISS3877","08ISS3877_20",38408,5,2,0,3,1,5,8,9,19,17,20,8,3,1,0,0,0,0
"370","09LOW0753","09LOW0753_20",38409,18,0,0,0,0,0,0,7,25,31,26,1,0,0,0,0,0,0
"371","07RAG018227","07RAG018227_20",38410,3,0,0,0,0,1,0,3,3,4,9,18,22,22,11,2,1,1
"372","09COV1864","09COV1864_20",38411,2,1,2,7,5,11,11,14,15,25,9,4,2,0,0,0,0,0
"373","08EAS2272","08EAS2272_20",38412,6,3,1,4,2,9,7,12,12,8,8,10,9,6,1,0,2,0
"374","08EAS2631","08EAS2631_20",38406,0,1,2,2,1,3,6,10,8,11,21,15,17,17,3,1,0,0
"375","07RAG004615","07RAG004615_20",38407,1,0,1,1,1,1,6,6,7,10,12,13,14,4,9,12,6,1
"376","08WES0905","08WES0905_20",38401,5,0,0,4,1,7,7,6,11,25,14,21,2,1,0,0,0,0
"377","08NOR1362","08NOR1362_20",38402,6,0,0,1,2,1,2,6,1,14,15,25,23,10,1,1,0,0
"378","08WES1178","08WES1178_20",33601,4,0,0,4,0,5,4,12,23,14,19,16,2,0,0,0,0,0
"379","08NOR1370","08NOR1370_20",33602,9,0,0,1,1,1,2,9,14,15,21,9,6,4,5,4,0,0
"380","08SAM1914","08SAM1914_20",38801,2,0,0,0,1,2,4,12,12,23,27,11,6,0,0,0,0,0
"381","09MID1537","09MID1537_20",39601,48,0,2,3,1,4,17,9,5,19,5,1,0,0,0,0,0,0
"382","08EAS2446","08EAS2446_20",39602,1,0,1,3,7,7,11,15,10,17,14,10,5,0,0,0,0,0
"383","08LAK3627","08LAK3627_20",39605,10,0,1,1,5,14,10,19,22,10,10,0,0,0,0,0,0,0
"384","08EAS2546","08EAS2546_20",39606,27,2,2,5,3,3,11,10,9,11,10,6,4,0,0,0,0,0
"385","08CED2518","08CED2518_20",38415,12,0,2,1,0,4,4,9,9,10,12,19,16,4,0,0,0,0
"386","08WES1579","08WES1579_20",38417,15,3,2,2,5,8,4,10,10,11,13,3,8,7,6,0,0,0
"387","08WES1490","08WES1490_20",38416,17,1,0,5,10,17,15,19,21,4,1,0,0,0,0,0,0,0
"388","07HAR070087","07HAR070087_20",38418,45,0,0,3,5,2,3,2,9,9,17,5,5,1,0,0,0,0
"389","09MID2426","09MID2426_20",39607,7,4,1,3,3,7,9,17,15,16,9,5,5,1,0,0,0,0
"390","08WES1340","08WES1340_20",38421,10,0,0,1,0,1,7,14,14,16,17,16,6,5,0,1,1,0
"391","07SFS009443","07SFS009443_20",38422,0,0,0,0,0,1,1,2,11,24,40,18,5,16,13,0,0,0
"392","07SFS066611","07SFS066611_20",38423,14,3,9,7,9,4,8,10,10,9,12,6,3,0,0,0,0,0
"393","07RAG002867","07RAG002867_20",38424,0,0,0,0,0,4,7,6,9,7,10,9,11,7,11,12,6,3
"394","08CED5046","08CED5046_20",34404,12,0,0,1,4,0,3,4,7,5,11,9,7,6,12,11,13,0
"395","08LAK3879","08LAK3879_20",33206,2,0,0,0,1,1,4,6,16,17,24,19,11,1,0,0,0,0
"396","08EAS2540","08EAS2540_20",39603,1,0,1,1,4,11,8,23,12,13,12,10,8,2,0,0,0,0
"397","08LAK3540","08LAK3540_20",39604,2,0,2,1,7,7,8,16,21,16,19,3,0,0,0,0,0,0
"398","07LNT062039","07LNT062039_20",40001,0,0,0,1,1,2,1,1,6,11,27,15,17,16,5,1,0,1
"399","07LNT075179","07LNT075179_20",40002,0,0,2,0,0,1,3,5,5,13,15,10,12,7,11,9,5,6
"400","09SOO1022","09SOO1022_20",40803,0,0,1,1,0,9,8,9,10,18,14,16,14,0,0,0,1,0
"401","09LOW0751","09LOW0751_20",43601,3,0,1,4,3,4,15,12,21,12,15,11,2,0,1,0,0,0
"402","07RAG043443","07RAG043443_20",40801,0,0,0,3,2,7,4,9,5,9,13,11,11,12,6,11,1,1
"403","07GRN077319","07GRN077319_20",40802,0,1,0,0,0,0,4,8,12,17,24,16,9,9,2,0,0,0
"404","08LIT2602","08LIT2602_20",41201,31,2,4,3,11,17,20,19,2,0,1,0,0,0,0,0,0,0
"405","07CHR234411","07CHR234411_20",41202,1,0,0,0,1,0,3,8,9,20,20,21,14,8,0,0,0,0
"406","07RAG004615","07RAG004615_21",45201,0,4,4,6,3,10,9,10,3,7,11,3,4,7,15,9,8,2
"407","08WES0905","08WES0905_21",45202,2,0,0,1,7,14,13,15,24,14,16,3,1,0,1,0,0,0
"408","07TKL072439","07TKL072439_21",45601,0,1,2,2,1,6,15,19,19,24,14,7,1,2,0,0,0,0
"409","09COV1864","09COV1864_21",45602,0,0,0,0,11,4,5,24,21,19,11,6,3,1,0,0,0,0
"410","09NEW2102","09NEW2102_21",45603,14,0,0,2,2,3,10,20,18,23,15,6,0,0,0,0,0,0
"411","09DEE2211","09DEE2211_21",45604,16,1,2,1,3,3,4,3,4,6,13,27,13,9,5,2,0,0
"412","09NEW2128","09NEW2128_21",46001,10,1,3,3,1,1,8,13,18,16,17,12,6,2,0,0,0,0
"413","08ISS3877","08ISS3877_21",46002,27,0,2,2,0,5,8,10,16,26,16,13,0,0,0,0,0,0
"414","07PAT231079","07PAT231079_21",46003,4,2,2,7,2,12,25,20,12,9,4,3,4,5,0,0,0,0
"415","09COV1862","09COV1862_21",46004,13,4,3,2,9,11,10,19,12,12,7,3,0,0,0,0,0,0
"416","07GRN022903","07GRN022903_21",48403,0,0,1,0,1,0,3,5,11,27,29,24,13,1,0,0,0,0
"417","08CED2898","08CED2898_21",48404,40,2,0,2,5,12,21,18,5,1,2,2,11,4,0,0,0,0
"418","08SAM2674","08SAM2674_21",48405,12,2,2,16,20,13,16,19,1,0,0,0,0,0,0,0,0,0
"419","08EAS2631","08EAS2631_21",48402,0,0,0,0,2,5,7,9,12,10,19,17,13,18,4,3,0,0
"420","08LIT2602","08LIT2602_21",48406,8,2,1,3,5,17,30,20,13,3,0,0,0,2,0,0,0,0
"421","08ISS4748","08ISS4748_21",48407,2,0,4,2,3,4,11,11,4,5,10,12,11,18,11,2,1,0
"422","07STL080295","07STL080295_21",54005,1,0,0,0,0,0,0,0,5,11,16,22,32,23,15,0,0,0
"423","08ISS4724","08ISS4724_21",54001,22,0,1,1,8,6,21,23,20,11,3,0,0,0,0,0,0,0
"424","07LNT062039","07LNT062039_21",54002,1,0,0,1,1,3,3,4,8,17,11,13,20,11,8,11,0,0
"425","09COV1165","09COV1165_20",35601,2,0,1,0,0,1,1,1,4,11,15,19,19,10,12,5,0,0
"426","09JEN1318","09JEN1318_20",35602,48,1,0,1,4,11,10,9,9,8,9,3,4,2,0,1,0,0
"427","07STL080295","07STL080295_20",36401,0,2,0,1,2,1,0,0,4,5,5,16,28,22,9,5,1,0
"428","07PAT001415","07PAT001415_20",36402,13,6,1,5,9,10,8,8,11,10,8,8,4,2,0,0,0,0
"429","08WES1490","08WES1490_21",46401,17,0,1,3,3,6,22,18,20,13,3,1,0,0,0,0,0,0
"430","08WES1579","08WES1579_21",46402,28,2,3,4,3,2,3,9,6,8,13,12,6,3,6,1,0,0
"431","08LAK3540","08LAK3540_21",46403,3,0,1,2,1,3,11,21,23,16,16,8,0,0,0,1,0,0
"432","09JEN1318","09JEN1318_21",48816,30,0,1,2,6,8,4,6,4,7,11,14,14,12,2,1,0,0
"433","07SFS041891","07SFS041891_21",48817,0,0,0,0,1,0,0,2,5,10,18,33,19,17,7,3,0,0
"434","09SOO0943","09SOO0943_21",48818,23,0,1,2,11,17,29,24,16,5,1,0,0,0,0,0,0,0
"435","09MIL0340","09MIL0340_21",48809,6,0,2,3,4,6,14,16,15,18,15,15,9,8,7,3,0,0
"436","07PAT001415","07PAT001415_21",48810,8,0,1,2,2,1,10,19,15,21,11,15,12,11,0,0,0,0
"437","09MID1817","09MID1817_21",48811,16,7,8,2,4,5,13,21,12,7,4,2,2,4,1,0,0,0
"438","BSE_1_MudMtnRd","BSE_1_MudMtnRd_21",48806,1,1,1,1,2,9,11,11,18,22,14,10,4,7,0,0,0,0
"439","09LOW0753","09LOW0753_21",48819,98,0,0,0,0,0,0,0,0,3,6,1,0,0,0,1,0,0
"440","09SOO1022","09SOO1022_21",48807,0,1,3,2,4,10,2,7,21,16,22,18,5,3,1,1,0,0
"441","07LNT130827","07LNT130827_21",48808,2,1,2,0,1,1,1,5,3,5,11,17,18,29,22,16,0,1
"442","09SOO1134","09SOO1134_21",48814,1,0,0,1,3,6,8,5,6,12,13,20,24,13,9,2,0,0
"443","09JEN1357","09JEN1357_21",48815,0,0,1,0,0,2,9,7,8,16,22,15,23,8,4,0,0,0
"444","09MIL0390","09MIL0390_21",48813,16,1,2,3,4,13,11,9,14,12,10,13,2,1,0,0,0,0
"445","08BEA3474","08BEA3474_21",48801,73,0,1,2,1,1,3,4,8,8,6,5,3,0,0,0,0,0
"446","08CED4192","08CED4192_21",48802,0,0,0,0,0,0,3,2,1,3,13,19,13,9,20,18,1,0
"447","07SFS066611","07SFS066611_21",48803,9,0,2,7,6,7,10,21,16,24,12,8,2,0,0,0,0,0
"448","08SAM1914","08SAM1914_21",49201,9,2,1,3,3,2,6,11,12,16,18,15,2,2,0,0,0,0
"449","08WES1340","08WES1340_21",49601,6,0,0,2,5,5,6,8,12,12,17,7,14,6,5,1,4,0
"450","08NOR1370","08NOR1370_21",49602,2,3,1,0,5,5,8,6,11,10,20,8,9,4,4,5,0,0
"451","08BEA3747","08BEA3747_21",49603,25,2,4,1,2,8,9,11,15,8,3,5,7,1,3,0,0,0
"452","09BLA0756","09BLA0756_21",50401,2,3,0,1,0,3,16,22,16,24,13,8,2,0,0,0,0,0
"453","WalkerPreserve","WalkerPreserve_21",50402,19,0,0,9,8,9,28,26,12,8,1,1,0,0,0,0,0,0
"454","07SFS011475","07SFS011475_21",50405,0,0,0,0,0,2,3,4,4,17,15,15,15,25,28,6,8,6
"455","09BLA0722","09BLA0722_21",50403,3,0,0,0,0,5,8,12,18,19,19,11,5,0,0,1,0,0
"456","07LMS093027","07LMS093027_21",50404,0,0,0,0,0,0,2,0,1,2,5,10,14,19,13,28,14,0
"457","07TKL047047","07TKL047047_21",52401,1,2,3,2,4,6,4,3,8,5,21,23,11,1,6,0,2,1
"458","09DUW0225","09DUW0225_21",52402,2,0,0,3,4,6,11,12,10,12,19,12,9,1,0,0,0,0
"459","09DUW0091","09DUW0091_21",52403,8,7,2,0,10,2,6,3,6,10,11,13,11,10,8,2,0,0
"460","07PAT228627","07PAT228627_21",52404,2,7,4,5,2,6,6,6,15,14,17,10,13,7,1,0,0,NA
"461","08ISS4730","08ISS4730_21",52405,5,0,3,2,14,14,19,19,14,19,14,8,8,0,1,0,0,0
"462","08ISS3962","08ISS3962_21",52406,5,1,1,1,2,5,11,10,17,18,20,14,18,3,0,1,1,0
"463","07PAT187623","07PAT187623_21",52407,41,7,13,24,15,6,2,1,0,0,0,0,0,0,0,0,0,0
"464","07CHR234411","07CHR234411_21",52408,0,0,1,2,0,5,7,4,14,18,18,15,17,3,4,0,0,0
"465","07CHR045515","07CHR045515_21",52409,0,0,0,2,2,3,2,3,4,7,13,16,18,22,8,8,0,0
"466","08EAS2191","08EAS2191_21",52410,11,1,1,4,5,15,24,16,20,7,3,0,0,0,0,0,0,0
"467","07RAG043443","07RAG043443_21",52411,4,2,3,0,4,2,3,8,8,15,18,16,11,9,1,9,4,0
"468","07LMS055075","07LMS055075_21",52412,0,2,4,2,2,3,6,8,14,18,19,18,8,3,0,0,0,0
"469","07RAG002867","07RAG002867_21",52413,4,0,0,0,2,1,3,5,10,9,7,11,9,9,20,11,5,0
"470","08CED2518","08CED2518_21",52414,6,1,0,0,2,3,7,14,12,16,24,13,4,0,0,0,0,0
"471","07LNT163403","07LNT163403_21",52415,1,1,1,2,5,1,6,11,19,21,11,12,10,5,1,0,0,0
"472","07PAT187623","07PAT187623_20",37201,60,7,11,8,22,6,2,0,0,0,0,0,0,0,0,0,0,0
"473","07PAT166087","07PAT166087_20",37202,7,0,1,2,5,3,8,17,17,21,15,4,0,0,0,0,0,0
"474","07HAR025863","07HAR025863_20",39201,7,0,1,1,5,4,13,12,9,11,11,11,11,8,0,3,0,0
"475","08NOR2115","08NOR2115_20",39202,3,0,0,6,7,11,8,9,28,27,8,2,1,1,0,0,0,0
"476","08EAS2546","08EAS2546_21",46801,23,5,3,6,5,11,6,14,11,8,4,2,3,0,0,0,0,0
"477","BSE_21_GolfCrs","BSE_21_GolfCrs_21",50001,5,3,1,2,6,5,9,3,8,10,18,14,21,14,8,1,0,0
"478","BSE_8_268hAveSE","BSE_8_268hAveSE_21",50002,14,0,1,0,0,3,6,21,33,25,15,2,0,0,0,0,0,0
"479","09DUW0277","09DUW0277_21",50004,26,2,3,2,3,7,8,10,13,5,12,6,4,0,0,0,0,0
"480","07RAG012515","07RAG012515_21",52001,2,1,2,1,2,5,6,7,12,10,14,9,10,8,11,7,4,2
"481","ZAK","ZAK_21",52002,6,0,1,2,3,5,11,9,24,22,12,4,2,0,0,0,0,0
"482","08ISS4294","08ISS4294_21",52003,5,0,0,1,0,0,1,3,9,11,21,23,13,13,8,4,0,0
"483","Miller_Cove","Miller_Cove_21",52004,0,1,0,2,2,10,22,35,23,13,3,0,0,0,0,0,0,0
"484","07CHR070059","07CHR070059_21",52008,0,0,0,2,1,5,12,13,10,10,17,14,11,11,7,1,0,0
"485","07RAG022147","07RAG022147_21",51601,5,0,1,1,0,0,6,12,23,9,13,8,11,13,4,5,0,0
"486","09BLA0771","09BLA0771_21",52005,1,0,0,0,4,8,15,11,20,18,17,12,3,0,0,0,0,0
"487","08EAS2272","08EAS2272_21",52007,6,2,3,3,4,3,5,9,11,7,15,7,4,5,4,9,3,0
"488","08EAS1964","08EAS1964_21",52417,10,3,2,0,4,3,8,16,25,20,27,28,7,1,0,0,0,0
"489","08EAS2446","08EAS2446_21",52418,2,0,1,0,0,1,4,10,17,15,21,21,8,2,2,0,0,0
"490","08LAK2827","08LAK2827_21",52419,4,2,3,1,5,11,14,15,10,14,13,6,1,1,2,0,0,0
"491","08EAS2540","08EAS2540_21",52420,0,1,2,2,5,6,12,25,10,10,10,12,15,13,1,0,0,0
"492","08LIT2603","08LIT2603_21",52421,6,2,3,5,4,13,12,17,18,14,12,1,1,1,1,0,0,0
"493","08LIT2781","08LIT2781_21",52422,5,1,1,1,3,9,24,42,25,23,2,0,0,1,0,0,0,0
"494","08EAS1536","08EAS1536_21",52423,4,0,0,2,3,5,7,24,21,17,18,7,2,0,0,0,0,0
"495","08WES1178","08WES1178_21",52424,9,2,3,4,3,9,13,23,12,8,16,5,4,0,0,0,0,0
"496","08BEA3737","08BEA3737_21",52425,21,2,4,4,6,19,33,27,13,1,0,0,0,0,0,0,0,0
"497","08BEA3650","08BEA3650_21",52426,3,1,0,2,0,3,10,11,17,17,26,20,5,2,0,0,0,0
"498","08CED5032","08CED5032_21",52427,4,0,1,1,1,1,6,7,6,10,6,17,15,11,20,7,0,0
"499","08CED5046","08CED5046_21",52428,12,1,0,0,2,4,5,7,5,5,9,9,4,9,16,16,5,6
"500","08SAM2855","08SAM2855_21",52429,2,0,0,2,2,3,10,15,13,11,14,9,12,9,0,0,0,0
"501","09DEE2163","09DEE2163_21",53206,3,0,1,3,5,5,10,19,13,20,8,4,5,0,1,0,0,0
"502","09COV1418","09COV1418_21",53207,3,0,1,1,1,3,1,8,11,20,26,10,8,8,3,0,0,0
"503","08LIT2682","08LIT2682_21",53201,0,0,0,0,1,1,8,21,21,32,24,16,0,0,0,0,0,0
"504","08ISS4735","08ISS4735_21",53202,3,3,3,7,5,4,6,6,8,9,7,12,25,13,3,5,0,0
"505","09SOO1130","09SOO1130_21",53210,0,0,0,0,0,0,1,5,13,19,25,28,12,9,1,0,0,0
"506","09DEE2208","09DEE2208_21",53211,0,0,0,1,0,2,3,9,14,32,27,28,9,2,0,0,0,0
"507","09COV1756","09COV1756_21",53212,26,3,5,6,12,18,14,9,9,6,10,11,11,1,0,0,0,0
"508","09MID2426","09MID2426_21",53203,0,0,0,1,2,5,11,16,22,16,11,10,6,0,0,0,0,0
"509","08NOR2306","08NOR2306_21",53204,9,1,4,1,1,5,5,22,19,22,13,3,0,3,0,0,0,0
"510","09COV1165","09COV1165_21",53208,0,0,0,2,1,2,7,6,9,16,23,24,19,17,6,2,0,0
"511","09DEE2294","09DEE2294_21",53209,0,1,0,0,0,1,1,2,9,10,15,23,16,9,10,5,0,0
"512","09LOW0751","09LOW0751_21",53213,0,1,0,1,3,4,9,11,16,19,12,17,7,3,0,0,0,0
"513","09SOO1209","09SOO1209_21",53214,3,0,1,3,3,9,10,9,15,15,17,17,11,6,0,0,0,0
"514","08BEA3312","08BEA3312_21",53601,25,2,7,9,8,1,8,14,16,22,5,1,1,2,0,0,0,0
"515","08NOR1750","08NOR1750_21",53205,1,0,0,1,0,1,12,8,20,17,32,7,2,1,0,0,0,0
"516","07LMS033235","07LMS033235_21",53602,10,1,0,1,4,3,9,14,12,15,15,12,4,0,0,0,0,0
"517","09MIL0390","09MIL0390_20",34401,10,1,1,0,2,3,12,25,20,19,18,6,0,0,0,0,0,0
"518","09MIL0340","09MIL0340_20",34402,0,0,0,4,5,8,12,13,14,15,22,9,4,5,1,1,0,0
"519","09DUW0225","09DUW0225_20",34403,24,1,1,0,3,5,7,13,18,19,15,4,1,1,0,0,0,0
"520","08CED5032","08CED5032_20",34405,3,0,0,1,1,3,4,4,6,12,13,5,10,5,10,6,18,0
"521","08ISS4748","08ISS4748_20",41601,29,9,2,4,4,4,6,3,3,3,10,6,9,3,6,5,0,0
"522","09NEW2128","09NEW2128_20",42003,8,1,2,1,4,5,2,12,13,27,18,13,5,1,0,0,0,0
"523","08BEA3737","08BEA3737_20",42004,0,0,2,4,18,18,25,16,9,9,1,0,0,0,0,0,0,0
"524","08ISS3962","08ISS3962_20",42001,3,1,2,3,2,8,3,9,9,9,23,21,14,5,0,0,0,0
"525","08ISS4884","08ISS4884_20",42002,0,1,1,1,6,5,9,5,15,16,22,15,12,2,0,0,0,0
"526","09DEE2294","09DEE2294_20",42005,5,0,0,2,2,0,2,6,10,18,15,10,8,8,8,6,2,0
"527","08LAK3699","08LAK3699_20",42401,3,0,0,0,3,3,9,11,14,28,19,8,2,1,0,0,0,0
"528","07GRN022903","07GRN022903_20",42402,0,0,0,0,1,0,3,6,16,19,21,22,8,6,0,0,0,0
"529","07LMS055075","07LMS055075_20",42404,7,0,0,0,0,1,7,14,16,19,22,21,5,3,1,0,0,0
"530","07TKL047047","07TKL047047_20",42405,0,2,1,4,2,1,7,9,12,11,18,26,17,9,0,3,0,0
"531","07CHR045515","07CHR045515_20",40402,10,1,0,6,1,2,3,7,5,7,6,11,15,7,7,13,1,0
"532","07CHR070059","07CHR070059_20",40401,5,1,1,0,1,3,5,3,8,9,12,14,26,13,2,2,2,0
"533","07LNT163403","07LNT163403_20",42801,3,0,0,1,1,4,8,11,11,6,11,9,15,8,12,1,0,0
"534","08LIT2603","08LIT2603_20",42802,23,0,3,3,3,6,8,21,22,9,7,1,1,0,0,0,0,0
"535","07LMS026663","07LMS026663_20",42803,1,0,0,0,0,0,1,1,5,1,2,8,12,20,25,29,10,3
"536","08EAS2058","08EAS2058_20",42804,6,3,2,3,2,5,3,15,19,12,19,10,7,2,1,0,0,0
"537","08WES0622","08WES0622_20",43201,12,3,6,16,26,29,24,11,6,1,0,0,0,0,0,0,0,0
"538","09NEW2076","09NEW2076_20",42805,13,0,0,2,3,5,16,22,29,11,2,0,1,0,0,0,0,0
"539","07SFS011475","07SFS011475_20",42806,0,0,0,1,2,3,15,7,13,17,21,22,11,12,10,7,1,1
"540","08WES0629","08WES0629_20",42807,0,2,3,3,7,13,15,22,15,21,9,5,5,0,0,0,0,0
"541","09BLA0817","09BLA0817_20",42808,5,2,5,6,19,23,23,23,13,2,0,1,0,0,0,0,0,0
"542","VashShing","VashShin_20",43202,11,7,8,13,17,7,22,12,7,8,4,2,0,0,0,0,0,0
"543","08BEA3914","08BEA3914_20",42809,0,0,1,2,7,8,11,7,26,28,17,10,4,0,0,0,0,0
"544","08BEA3826","08BEA3826_20",42810,0,0,0,6,5,9,21,13,25,25,21,8,4,1,0,0,0,0
"545","09MID1958","09MID1958_20",42811,3,1,1,2,4,3,17,12,13,11,10,17,15,2,2,4,0,1
"546","08SAM3047","08SAM3047_20",42812,4,1,3,6,8,14,12,29,32,12,8,4,5,1,0,0,0,0
"547","09NEW1657","09NEW1657_20",42813,4,0,0,0,0,0,1,1,3,6,14,22,14,14,21,1,0,0
"548","08SAM0000","08SAM0000_20",42814,8,3,5,13,20,17,25,18,36,7,0,1,0,0,0,0,0,0
"549","09MID1744","09MID1744_20",42815,2,4,3,5,6,3,2,11,23,10,18,21,9,6,1,1,2,0
"550","08EVA3813","08EVA3813_20",42816,0,0,1,3,11,14,25,20,17,14,9,8,6,0,0,0,0,0
"551","08SAM2862","08SAM2862_20",42817,9,3,4,3,1,5,12,11,12,21,12,13,6,0,0,0,0,0
"552","07STL184007","07STL184007_20",43203,2,0,0,0,0,0,0,1,0,4,15,24,26,15,27,10,2,0
"553","08SAM3045","08SAM3045_20",42819,7,2,4,5,12,17,18,16,19,9,5,1,0,0,0,0,0,0
"554","07RAG012515","07RAG012515_20",42820,3,1,2,2,2,2,2,3,3,9,16,13,13,9,6,9,3,3
"555","08LIT2585","08LIT2585_20",42821,4,0,1,7,9,7,9,20,20,14,13,4,2,0,0,0,0,0
"556","08ISS4573","08ISS4573_20",42823,23,16,11,7,17,4,11,3,1,3,2,3,6,2,1,0,0,0
"557","07LMS103591","07LMS103591_20",42824,2,1,0,4,4,2,2,7,10,8,9,24,13,9,8,4,8,2
"558","08LAK3880","08LAK3880_20",42825,10,4,2,4,6,6,12,20,16,15,12,9,5,0,0,0,0,0
"559","28A","28A_20",42826,9,3,2,2,5,4,15,15,29,22,10,4,0,0,0,0,0,0
"560","07PAT228627","07PAT228627_20",42827,4,0,2,1,6,4,12,12,17,12,19,9,7,0,0,0,0,0
"561","VashChris","VashChris_20",42828,16,8,12,8,12,18,15,24,8,0,0,0,0,0,0,0,0,0
"562","09SOO1209","09SOO1209_20",40804,14,0,0,0,2,5,6,12,6,13,15,10,12,6,4,0,0,0
"563","09SOO1283","09SOO1283_20",42829,8,6,9,10,11,22,26,15,15,3,1,1,1,2,2,1,0,0
"564","07SFS011059","07SFS011059_20",42830,2,6,3,7,4,6,8,12,10,18,29,30,19,4,1,0,0,0
"565","07LMS093027","07LMS093027_20",42831,1,0,0,0,0,0,1,0,2,6,6,7,9,13,31,27,14,5
"566","08BEA3312","08BEA3312_20",42832,14,8,7,12,13,15,15,8,12,6,1,1,0,0,0,0,0,0
"567","07LNT075179","07LNT075179_21",54003,0,0,0,2,1,3,4,14,5,3,5,10,6,19,13,11,5,0
"568","07PAT166087","07PAT166087_21",45203,0,1,2,1,5,7,13,21,24,26,14,5,0,0,0,0,0,0
"569","VashChris","VashChris_21",55201,18,9,4,7,10,13,18,13,16,8,1,0,0,0,0,0,0,0
"570","07LMS103591","07LMS103591_21",55202,0,0,4,4,16,16,18,13,18,11,17,5,2,3,2,0,0,0
"571","07LMS026663","07LMS026663_21",55203,0,0,0,0,0,1,1,1,2,2,5,14,19,29,27,13,27,12
"572","07SFS011059","07SFS011059_21",55204,0,0,1,2,1,2,5,16,19,30,21,14,15,3,1,0,0,0
"573","08BEA3321","08BEA3321_21",55205,57,7,5,4,14,10,5,7,8,8,0,0,0,0,0,0,0,0
"574","08LAK3880","08LAK3880_21",55206,26,4,2,3,6,6,18,15,15,6,6,2,0,0,0,0,0,0
"575","09BLA0817","09BLA0817_21",55208,10,1,0,4,9,22,15,27,21,8,0,0,0,0,0,0,0,0
"576","09SOO1283","09SOO1283_21",55209,3,2,5,4,14,16,27,25,12,9,0,1,1,1,0,0,0,0
"577","08NOR2115","08NOR2115_21",47201,8,1,2,5,7,4,3,13,19,23,10,8,2,0,0,0,0,0
"578","08LAK3121","08LAK3121_21",47202,4,0,2,4,0,2,7,18,15,20,11,14,8,2,0,0,0,0
"579","08LIT2692","08LIT2692_21",47203,2,0,1,2,3,3,4,12,18,25,16,15,3,2,0,0,0,0
"580","09MID1374","09MID1374_21",50816,6,1,1,2,0,0,3,8,10,14,23,12,14,8,1,2,0,0
"581","07LMS213875","07LMS213875_21",50817,4,0,0,0,1,1,1,2,8,12,17,27,13,12,3,3,1,0
"582","08SAM2865","08SAM2865_21",50814,32,1,2,3,4,15,18,6,8,8,7,3,2,0,0,1,0,0
"583","09NEW2076","09NEW2076_21",50815,2,0,1,3,4,4,4,27,43,22,3,0,0,0,0,0,0,0
"584","08LAK3879","08LAK3879_21",51201,6,0,1,0,3,4,11,20,14,20,20,9,5,1,0,0,0,0
"585","08CED2711","08CED2711_21",50805,12,5,1,6,5,10,12,5,4,4,6,9,6,8,9,8,2,1
"586","09NEW1657","09NEW1657_21",50806,14,2,2,0,1,2,4,4,6,12,14,25,18,11,6,0,0,0
"587","07RAG018227","07RAG018227_21",50810,0,1,0,0,0,0,1,3,5,16,18,28,15,8,3,2,0,0
"588","07HAR025863","07HAR025863_21",50811,0,1,2,2,3,2,9,6,12,15,8,15,15,11,7,1,0,0
"589","07GRN077319","07GRN077319_21",50812,0,0,0,0,0,1,4,7,20,20,30,26,4,1,0,0,0,0
"590","08EVA3640","08EVA3640_21",50813,15,6,2,0,1,2,4,11,17,13,6,11,12,5,2,2,0,0
"591","Miller_SWSSD","Miller_SWSSD_21",50820,11,0,0,0,0,4,9,14,11,28,22,15,8,0,0,0,0,0
"592","09BLA0772","09BLA0772_21",50807,3,0,0,1,1,3,7,9,9,12,12,22,19,11,0,1,0,0
"593","08EVA3637","08EVA3637_21",50808,35,2,1,3,6,4,12,7,11,12,10,3,4,1,0,0,0,0
"594","09BLA0675","09BLA0675_21",50801,6,0,1,2,3,6,12,13,24,21,10,4,1,0,0,0,0,0
"595","09BLA0716","09BLA0716_21",50802,14,0,0,2,3,1,8,8,17,19,12,13,6,5,0,0,0,0
"596","08LAK3628","08LAK3628_21",50803,2,0,0,8,7,7,19,18,14,14,12,8,4,6,0,0,0,0
"597","08CED2433","08CED2433_21",50804,1,1,2,6,4,7,7,7,5,7,14,14,10,9,5,2,5,0
"598","07SFS009443","07SFS009443_21",50818,3,1,0,1,3,2,1,0,11,10,9,14,13,17,11,3,1,0
"599","08BEA3571","08BEA3571_21",50819,2,1,1,2,4,6,9,20,28,18,6,1,0,3,1,0,0,0
"600","07HAR070087","07HAR070087_21",47602,54,7,5,5,5,2,3,5,4,6,2,3,1,0,1,0,0,0
"601","08EVA3642","08EVA3642_21",47603,3,2,2,1,4,6,8,15,12,12,13,5,10,1,6,0,0,0
"602","08SAM3045","08SAM3045_21",54818,15,5,4,9,19,15,20,13,17,5,2,0,0,0,0,0,0,0
"603","08SAM3047","08SAM3047_21",54815,0,0,1,3,12,7,8,14,24,20,18,12,9,2,0,0,0,0
"604","08EVA3813","08EVA3813_21",54816,2,5,6,10,11,16,18,14,6,13,6,5,0,0,0,0,0,0
"605","VashShing","VashShin_21",54819,2,3,2,3,6,7,19,22,17,21,15,0,0,0,0,0,0,0
"606","08WES0622","08WES0622_21",54801,12,4,1,11,12,18,20,16,11,0,1,0,0,0,0,0,0,0
"607","08EAS2058","08EAS2058_21",54802,1,1,1,2,3,14,15,20,28,12,6,3,2,0,0,0,0,0
"608","08WES0629","08WES0629_21",54808,15,1,0,3,2,6,16,22,11,12,11,3,2,0,0,0,0,0
"609","08ISS4573","08ISS4573_21",54809,1,1,1,3,8,17,25,24,24,11,10,1,2,0,1,0,0,0
"610","08WES0903","08WES0903_21",54803,4,0,1,2,9,13,19,26,21,15,1,0,0,0,1,0,0,0
"611","09MID1958","09MID1958_21",54804,0,0,1,1,2,2,5,6,15,19,16,10,18,4,1,2,1,0
"612","28A","28A_21",54820,2,3,3,5,7,9,18,27,21,17,2,0,0,0,0,0,0,0
"613","09MID1744","09MID1744_21",54805,1,2,2,1,1,4,6,8,20,16,12,19,7,4,2,7,0,0
"614","07STL184007","07STL184007_21",54806,0,0,2,4,2,3,4,3,18,21,10,7,11,4,8,5,0,0
"615","08SAM0000","08SAM0000_21",54807,4,4,3,6,6,10,24,27,28,4,0,0,0,0,0,0,0,0
"616","08LAK3699","08LAK3699_21",54810,3,2,1,1,3,5,11,11,22,7,27,19,8,0,1,1,0,0
"617","08LIT2585","08LIT2585_21",54811,2,3,3,7,2,7,15,7,21,26,16,6,1,0,0,0,0,0
"618","08SAM2862","08SAM2862_21",54812,4,2,1,3,2,12,18,13,16,8,15,10,11,2,0,0,0,0
"619","08BEA3914","08BEA3914_21",54813,1,1,2,3,3,6,9,13,13,17,26,16,6,1,0,0,0,0
"620","08BEA3826","08BEA3826_21",54814,0,3,3,3,6,8,11,20,27,17,14,9,4,1,1,0,0,0
"621","09LOW0325","09LOW0325_21",52801,3,0,2,2,1,1,4,11,8,14,15,14,10,3,3,6,5,1
"622","08NOR1362","08NOR1362_21",52802,20,0,2,0,0,1,2,1,10,17,16,21,15,4,1,0,1,0
"623","09BLA0768","09BLA0768_21",52803,8,0,3,2,5,10,13,17,14,10,14,4,2,0,0,0,0,0
"2410","09NEW1657","09NEW1657_18",5211,0,0,1,4,0,4,4,5,10,16,10,16,20,17,10,2,0,0
"1201","09COV1756","09COV1756_18",14001,NA,NA,NA,NA,NA,NA,NA,NA,NA,NA,NA,NA,NA,NA,NA,NA,NA,NA
"1711","Evans Creek Trib #0108","Evans Creek Trib #0108_18",17204,NA,NA,NA,NA,NA,NA,NA,NA,NA,NA,NA,NA,NA,NA,NA,NA,NA,NA
"4421","07LMS213875","07LMS213875_20",47203,NA,NA,NA,NA,NA,NA,NA,NA,NA,NA,NA,NA,NA,NA,NA,NA,NA,NA
"4901","08WES1037","08WES1037_20",48415,NA,NA,NA,NA,NA,NA,NA,NA,NA,NA,NA,NA,NA,NA,NA,NA,NA,NA
"703","08WES1037","08WES1037_21",67610,NA,NA,NA,NA,NA,NA,NA,NA,NA,NA,NA,NA,NA,NA,NA,NA,NA,NA
