"","SiteName","SampleName","SampleDate","NumberOfPools","ReachLength","pools_per_ft"
"1","08WES0622","08WES0622_17",2017-07-25 08:30:00,0,131,0
"2","08BEA3571","08BEA3571_17",2017-07-24 12:15:00,0,28.5,0
"3","09COV1756","09COV1756_17",2017-07-26 11:59:59,0,74.6,0
"4","09COV1862","09COV1862_17",2017-07-26 14:00:00,1,121,0.00826446280991736
"5","09JEN1357","09JEN1357_17",2017-07-30 23:59:59,0,24,0
"6","09JEN1318","09JEN1318_17",2017-07-31 11:00:00,0,17.8,0
"7","08EAS1964","08EAS1964_17",2017-08-01 13:45:00,1,188.9,0.00529380624669137
"8","08WES0903","08WES0903_17",2017-07-25 13:29:59,2,180.5,0.0110803324099723
"9","08WES0905","08WES0905_17",2017-07-25 10:35:00,2,142,0.0140845070422535
"10","09NEW2076","09NEW2076_17",2017-08-29 11:59:59,2,81,0.0246913580246914
"11","08BEA3826","08BEA3826_17",2017-08-22 09:30:00,2,115.5,0.0173160173160173
"12","09SOO1209","09SOO1209_17",2017-08-01 11:00:00,1,134,0.00746268656716418
"13","BSE_8_268hAveSE","BSE_8_268hAveSE_17",2017-08-30 13:45:00,1,51,0.0196078431372549
"14","BSE_1_MudMtnRd","BSE_1_MudMtnRd_17",2017-08-30 11:14:59,4,87.9,0.0455062571103527
"15","09BLA0716","09BLA0716_17",2017-08-23 11:14:59,0,52.5,0
"16","09DEE2208","09DEE2208_17",2017-08-29 09:15:00,3,203,0.0147783251231527
"17","09BLA0772","09BLA0772_17",2017-08-29 09:15:00,0,57,0
"18","08CED4192","08CED4192_17",2017-08-10 09:44:59,1,116,0.00862068965517241
"19","08CED2433","08CED2433_17",2017-08-28 08:30:00,1,70.1,0.014265335235378
"20","08LAK3540","08LAK3540_17",2017-08-28 11:45:00,1,72,0.0138888888888889
"21","09BLA0817","09BLA0817_17",2017-08-28 14:30:00,1,95.5,0.0104712041884817
"22","08EAS2546","08EAS2546_17",2017-08-14 10:00:00,1,24,0.0416666666666667
"23","09BLA0756","09BLA0756_17",2017-08-23 13:45:00,3,90,0.0333333333333333
"24","09BLA0675","09BLA0675_17",2017-08-23 09:15:00,0,35,0
"25","09SOO1134","09SOO1134_17",2017-08-02 09:30:00,0,68.5,0
"26","08BEA3914","08BEA3914_17",2017-08-22 13:00:00,2,97.3,0.0205549845837616
"27","08LAK3627","08LAK3627_17",2017-08-01 11:00:00,1,88.8,0.0112612612612613
"28","08BEA3474","08BEA3474_17",2017-07-27 10:29:59,0,178,0
"29","08EAS2631","08EAS2631_17",2017-08-03 08:45:00,4,100,0.04
"30","08EAS2058","08EAS2058_17",2017-08-03 11:00:00,2,158,0.0126582278481013
"32","08CED2518","08CED2518_17",2017-08-10 14:00:00,0,160,0
"33","09MID1958","09MID1958_17",2017-08-07 13:29:59,1,59.5,0.0168067226890756
"34","09COV1864","09COV1864_17",2017-08-03 09:15:00,0,45,0
"35","09COV1165","09COV1165_17",2017-08-03 12:30:00,2,209.5,0.00954653937947494
"36","09COV1418","09COV1418_17",2017-08-17 10:15:00,0,72,0
"37","09SOO1283","09SOO1283_17",2017-08-02 09:15:00,1,180.9,0.00552791597567717
"38","07PAT231079","07PAT231079_17",2017-08-15 08:59:59,0,58,0
"39","08LAK3699","08LAK3699_17",2017-08-15 11:59:59,1,44.7,0.0223713646532438
"40","09SOO1130","09SOO1130_17",2017-08-02 00:15:00,2,249,0.00803212851405622
"41","09MID1817","09MID1817_17",2017-08-16 11:59:59,2,53,0.0377358490566038
"42","08ISS4573","08ISS4573_17",2017-08-02 08:59:59,2,75,0.0266666666666667
"43","08ISS4884","08ISS4884_17",2017-08-02 13:00:00,0,80,0
"44","08SAM2674","08SAM2674_17",2017-09-18 09:15:00,0,40,0
"45","08BEA3650","08BEA3650_17",2017-09-18 11:00:00,3,52,0.0576923076923077
"46","08BEA3737","08BEA3737_17",2017-09-18 00:44:59,4,127.5,0.0313725490196078
"47","WalkerPreserve","WalkerPreserve_17",2017-09-13 11:30:00,0,20,0
"48","08CED4975","08CED4975_17",2017-07-31 14:00:00,1,48,0.0208333333333333
"49","08CED2711","08CED2711_17",2017-09-21 10:15:00,4,117,0.0341880341880342
"50","07RAG004615","07RAG004615_17",2017-08-07 08:59:59,0,200,0
"51","08LAK3628","08LAK3628_17",2017-09-25 09:15:00,0,66.2,0
"52","07LNT075179","07LNT075179_17",2017-09-27 13:15:00,0,100,0
"53","Miller_SWSSD","Miller_SWSSD_17",2017-09-13 13:00:00,3,112.7,0.0266193433895297
"54","08SAM1914","08SAM1914_17",2017-09-14 08:45:00,3,87,0.0344827586206897
"55","07SFS009443","07SFS009443_17",2017-09-11 13:45:00,0,130,0
"57","08SAM3045","08SAM3045_17",2017-08-23 13:00:00,0,81,0
"58","07SFS041891","07SFS041891_17",2017-08-23 13:29:59,0,300,0
"59","07SFS011059","07SFS011059_17",2017-08-23 11:14:59,0,74.1,0
"60","08SAM2865","08SAM2865_17",2017-08-24 11:59:59,0,47,0
"61","07LMS093027","07LMS093027_17",2017-09-05 09:15:00,1,187,0.0053475935828877
"62","Miller_Cove","Miller_Cove_17",2017-09-13 09:15:00,2,108,0.0185185185185185
"63","09DEE2211","09DEE2211_17",2017-08-18 09:30:00,0,59.6,0
"64","07GRN022903","07GRN022903_17",2017-09-11 11:30:00,2,124.3,0.0160901045856798
"65","08LAK3880","08LAK3880_17",2017-09-28 14:00:00,0,31,0
"67","07LNT062039","07LNT062039_17",2017-09-27 10:29:59,3,236,0.0127118644067797
"68","07SFS066611","07SFS066611_17",2017-08-24 10:15:00,0,5.7,0
"69","07STL184007","07STL184007_17",2017-08-23 08:59:59,0,249,0
"70","09NEW2128","09NEW2128_17",2017-10-07 12:15:00,0,96,0
"71","07SFS011475","07SFS011475_17",2017-08-24 11:45:00,0,61.9,0
"72","08EAS2272","08EAS2272_17",2017-08-14 12:15:00,0,207,0
"73","08SAM3047","08SAM3047_17",2017-07-27 11:59:59,0,95,0
"74","08SAM2855","08SAM2855_17",2017-07-27 09:30:00,0,83,0
"75","09MID2426","09MID2426_17",2017-08-16 09:30:00,2,62.4,0.0320512820512821
"76","09NEW1657","09NEW1657_17",2017-09-07 09:30:00,2,96.5,0.0207253886010363
"77","07RAG043443","07RAG043443_17",2017-08-06 23:59:59,6,294.6,0.0203665987780041
"78","07LMS026663","07LMS026663_17",2017-08-14 10:15:00,0,342.3,0
"79","08LAK3879","08LAK3879_17",2017-08-15 13:45:00,1,92,0.0108695652173913
"80","09SOO1022","09SOO1022_17",2017-08-02 11:14:59,2,57,0.0350877192982456
"81","09NEW2102","09NEW2102_17",2017-07-26 08:59:59,3,162.5,0.0184615384615385
"82","09DEE2163","09DEE2163_17",2017-08-16 09:30:00,0,11,0
"83","08LAK2827","08LAK2827_17",2017-08-01 08:30:00,0,62,0
"84","09MIL0390","09MIL0390_17",2017-07-20 02:00:00,0,66.5,0
"86","09SOO0943","09SOO0943_17",2017-08-08 11:59:59,1,115,0.00869565217391304
"87","09BLA0771","09BLA0771_17",2017-07-26 13:00:00,3,55.3,0.054249547920434
"88","09LOW0751","09LOW0751_17",2017-08-17 01:15:00,2,68.5,0.0291970802919708
"90","09MIL0340","09MIL0340_17",2017-07-20 11:30:00,1,39,0.0256410256410256
"91","09DEE2294","09DEE2294_17",2017-08-16 12:44:59,0,136,0
"92","08ISS4730","08ISS4730_17",2017-08-09 10:00:00,1,87.6,0.0114155251141553
"103","08EAS2540","08EAS2540_17",2017-07-20 09:15:00,3,63.9,0.0469483568075117
"119","08NOR2115","08NOR2115_17",2017-08-21 08:14:59,1,107,0.00934579439252336
"120","07RAG002867","07RAG002867_17",2017-08-06 23:59:59,1,89,0.0112359550561798
"121","07GRN077319","07GRN077319_17",2017-09-08 13:15:00,0,264,0
"122","07HAR070087","07HAR070087_17",2017-08-08 10:29:59,0,45.8,0
"123","07PAT001415","07PAT001415_17",2017-08-07 13:45:00,0,57,0
"124","07TKL072439","07TKL072439_17",2017-08-09 09:15:00,0,53.5,0
"125","08BEA3321","08BEA3321_17",2017-08-21 13:29:59,1,37,0.027027027027027
"126","07STL080295","07STL080295_17",2017-08-10 14:00:00,0,98,0
"127","08CED5046","08CED5046_17",2017-07-31 09:15:00,0,80.5,0
"128","08CED5032","08CED5032_17",2017-07-31 11:45:00,1,80.5,0.0124223602484472
"129","07LMS213875","07LMS213875_17",2017-09-12 11:45:00,1,40,0.025
"131","07LMS103591","07LMS103591_17",2017-09-12 10:00:00,2,78.3,0.0255427841634738
"134","07RAG022147","07RAG022147_17",2017-08-22 08:59:59,5,88.9,0.0562429696287964
"135","07RAG018227","07RAG018227_17",2017-08-24 14:30:00,2,236,0.00847457627118644
"136","07RAG042787","07RAG042787_17",2017-08-22 11:14:59,0,150,0
"137","07CHR045515","07CHR045515_17",2017-08-22 11:59:59,1,123,0.00813008130081301
"138","07TKL047047","07TKL047047_17",2017-08-14 13:15:00,0,42,0
"139","08ISS4748","08ISS4748_17",2017-07-20 13:15:00,1,162,0.00617283950617284
"140","08BEA3747","08BEA3747_17",2017-07-24 09:44:59,1,90,0.0111111111111111
"141","08LAK3121","08LAK3121_17",2017-07-20 13:29:59,0,26.9,0
"142","07LMS055075","07LMS055075_17",2017-09-12 13:00:00,0,64,0
"143","07LMS033235","07LMS033235_17",2017-08-14 14:14:59,5,92.4,0.0541125541125541
"144","07LNT130827","07LNT130827_17",2017-08-16 13:00:00,0,415.6,0
"145","07HAR025863","07HAR025863_17",2017-08-17 09:30:00,0,92.6,0
"146","07CHR070059","07CHR070059_17",2017-08-22 09:30:00,2,69,0.0289855072463768
"147","08EAS2446","08EAS2446_17",2017-08-15 12:44:59,1,153.2,0.00652741514360313
"148","08ISS4294","08ISS4294_17",2017-10-10 09:44:59,0,106,0
"149","08NOR2306","08NOR2306_17",2017-08-20 23:59:59,2,252.5,0.00792079207920792
"150","08BEA3312","08BEA3312_17",2017-08-23 10:29:59,2,67.1,0.029806259314456
"151","08ISS3962","08ISS3962_17",2017-07-20 09:15:00,7,175.4,0.0399087799315849
"152","08ISS3958","08ISS3958_17",2017-08-15 09:44:59,0,20.3,0
"153","08EAS1536","08EAS1536_17",2017-08-21 08:59:59,1,81.5,0.0122699386503067
"154","08EAS2191","08EAS2191_17",2017-08-21 11:45:00,1,47,0.0212765957446809
"155","08SAM0000","08SAM0000_17",2017-08-21 13:45:00,4,146.5,0.0273037542662116
"156","08ISS4724","08ISS4724_17",2017-10-26 14:14:59,4,158,0.0253164556962025
"157","BSE_21_GolfCrs","BSE_21_GolfCrs_17",2017-08-30 09:15:00,1,56,0.0178571428571429
"158","09LOW0325","09LOW0325_17",2017-08-28 12:15:00,1,85.7,0.0116686114352392
"159","09LOW0753","09LOW0753_17",2017-08-28 09:30:00,0,9,0
"160","09BLA0722","09BLA0722_17",2017-09-12 10:29:59,2,105,0.019047619047619
"161","09BLA0768","09BLA0768_17",2017-07-26 08:45:00,0,149.1,0
"162","08ISS3877","08ISS3877_17",2017-07-19 10:15:00,0,40.6,0
"163","08CED2898","08CED2898_17",2017-08-10 12:15:00,0,25.8,0
"164","09MID1537","09MID1537_17",2017-08-24 11:30:00,0,127,0
"165","08SAM2862","08SAM2862_17",2017-08-24 09:15:00,2,55.6,0.0359712230215827
"166","08EVA3637","08EVA3637_17",2017-07-26 10:29:59,0,43,0
"167","08WES0629","08WES0629_17",2017-07-27 13:15:00,3,123,0.024390243902439
"168","08LIT2585","08LIT2585_17",2017-07-31 10:45:00,5,200,0.025
"170","08WES1178","08WES1178_17",2017-07-27 11:00:00,1,48,0.0208333333333333
"171","08LIT2682","08LIT2682_17",2017-07-31 14:30:00,1,157,0.00636942675159236
"172","08LIT2781","08LIT2781_17",2017-08-01 10:15:00,0,139.4,0
"173","08LIT2692","08LIT2692_17",2017-08-01 13:00:00,0,66,0
"175","08NOR1370","08NOR1370_17",2017-08-08 11:30:00,0,237,0
"176","08NOR1362","08NOR1362_17",2017-08-08 12:44:59,3,242,0.012396694214876
"177","08NOR1756","08NOR1756_17",2017-08-10 12:44:59,1,88.9,0.0112485939257593
"178","08NOR1750","08NOR1750_17",2017-08-10 10:45:00,0,128.25,0
"179","09DUW0277","09DUW0277_17",2017-08-31 14:30:00,0,76.4,0
"180","08EVA3642","08EVA3642_17",2017-09-07 11:59:59,2,100,0.02
"181","08WES1340","08WES1340_17",2017-09-18 09:44:59,1,76,0.0131578947368421
"182","08EVA3813","08EVA3813_17",2017-08-23 11:45:00,0,144,0
"183","09MID1374","09MID1374_17",2017-08-24 13:29:59,2,88,0.0227272727272727
"184","09DUW0225","09DUW0225_17",2017-08-31 13:00:00,1,57,0.0175438596491228
"185","09DUW0091","09DUW0091_17",2017-09-05 14:14:59,0,94.9,0
"186","08EVA3640","08EVA3640_17",2017-09-07 10:00:00,0,200.1,0
"187","08WES1579","08WES1579_17",2017-09-12 12:44:59,2,74.5,0.0268456375838926
"188","09MID1744","09MID1744_17",2017-09-12 09:30:00,0,173.1,0
"189","08WES1037","08WES1037_17",2017-09-17 23:59:59,0,93,0
"190","08LIT2602","08LIT2602_17",2017-09-21 11:14:59,0,134,0
"191","08LIT2603","08LIT2603_17",2017-09-20 23:59:59,3,145,0.0206896551724138
"192","08LIT2685","08LIT2685_17",2017-09-24 23:59:59,0,104.5,0
"193","VashChris","VashChris_17",2017-09-20 14:59:59,5,80,0.0625
"194","VashShing","VashShing_17",2017-08-03 08:59:59,1,148.8,0.00672043010752688
"195","28A","28A_17",2017-08-03 11:00:00,0,128,0
"174","08EVA3640","08EVA3640_18",2018-08-30 17:05:00,1,12.5,0.08
"211","07SFS066611","07SFS066611_18",2018-08-29 17:35:00,2,10.79,0.185356811862836
"310","07RAG018227","07RAG018227_18",2018-08-27 20:30:00,0,37.7,0
"417","07RAG043443","07RAG043443_18",2018-08-08 16:30:00,1,66.5,0.0150375939849624
"612","07LMS033235","07LMS033235_18",2018-08-06 18:45:00,2,35,0.0571428571428571
"714","07LMS093027","07LMS093027_18",2018-08-13 19:36:00,0,83.8,0
"810","07STL080295","07STL080295_18",2018-08-07 19:55:00,0,55.3,0
"910","07LMS055075","07LMS055075_18",2018-08-29 20:51:00,4,36.7,0.108991825613079
"1010","07PAT228627","07PAT228627_18",2018-08-29 19:50:00,2,24.8,0.0806451612903226
"1110","07LMS213875","07LMS213875_18",2018-08-06 20:56:00,1,15.1,0.0662251655629139
"1210","07LMS026663","07LMS026663_18",2018-08-13 15:38:00,0,113,0
"1310","08WES0622","08WES0622_18",2018-08-02 16:50:00,0,58,0
"1410","08ISS3877","08ISS3877_18",2018-07-25 16:30:00,4,57,0.0701754385964912
"1510","08BEA3826","08BEA3826_18",2018-08-06 18:45:00,0,25.9,0
"1610","07HAR070087","07HAR070087_18",2018-08-07 16:45:00,2,11.8,0.169491525423729
"1710","09MIL0390","09MIL0390_18",2018-08-24 17:40:00,0,30,0
"1810","08WES1178","08WES1178_18",2018-08-02 16:43:00,0,7.1,0
"1910","BSE_21_GolfCrs","BSE_21_GolfCrs_18",2018-08-09 17:00:00,4,62.5,0.064
"2010","08EAS2058","08EAS2058_18",2018-08-14 21:00:00,4,54,0.0740740740740741
"212","08EAS2540","08EAS2540_18",2018-07-31 15:30:00,2,17.45,0.114613180515759
"2210","08ISS4294","08ISS4294_18",2018-08-01 20:24:00,0,21.3,0
"2310","08CED2898","08CED2898_18",2018-08-01 21:30:00,0,16.6,0
"244","09NEW1657","09NEW1657_18",2018-08-23 18:50:00,0,42,0
"252","08CED2711","08CED2711_18",2018-08-01 18:45:00,4,36.6,0.109289617486339
"262","08EAS1964","08EAS1964_18",2018-08-14 18:27:00,2,48.8,0.0409836065573771
"285","08WES0629","08WES0629_18",2018-08-02 19:30:00,1,20,0.05
"293","09BLA0756","09BLA0756_18",2018-08-29 19:00:00,4,21.6,0.185185185185185
"301","08BEA3914","08BEA3914_18",2018-08-06 21:30:00,0,7.5,0
"31","08EAS2446","08EAS2446_18",2018-08-14 15:50:00,0,53.35,0
"322","08LAK3879","08LAK3879_18",2018-08-01 16:40:00,2,22.4,0.0892857142857143
"333","09MID1374","09MID1374_18",2018-08-23 22:00:00,3,17,0.176470588235294
"341","09SOO1134","09SOO1134_18",2018-08-16 17:00:00,3,150,0.02
"351","08EAS2272","08EAS2272_18",2018-08-31 19:50:00,0,45,0
"361","09MID2426","09MID2426_18",2018-08-23 17:40:00,0,13.6,0
"374","09MID1817","09MID1817_18",2018-08-23 20:20:00,1,13.2,0.0757575757575758
"389","08EAS2631","08EAS2631_18",2018-08-14 15:21:00,2,22.6,0.0884955752212389
"392","08EVA3637","08EVA3637_18",2018-08-13 15:32:00,0,12.9,0
"401","08SAM0000","08SAM0000_18",2018-08-17 16:12:00,4,55,0.0727272727272727
"4110","08ISS4748","08ISS4748_18",2018-08-01 18:26:00,5,13.3,0.37593984962406
"422","08WES0903","08WES0903_18",2018-08-14 21:20:00,2,55,0.0363636363636364
"433","09NEW2102","09NEW2102_18",2018-08-15 16:45:00,8,150,0.0533333333333333
"4410","08CED4192","08CED4192_18",2018-08-30 16:40:00,1,30.65,0.032626427406199
"4510","08ISS3958","08ISS3958_18",2018-08-27 15:15:00,0,6.3,0
"4610","08WES1340","08WES1340_18",2018-08-28 21:00:00,1,23.7,0.0421940928270042
"4710","08ISS3962","08ISS3962_18",2018-08-01 21:43:00,0,4.4,0
"4810","08ISS4573","08ISS4573_18",2018-08-01 16:00:00,0,14.7,0
"497","09BLA0722","09BLA0722_18",2018-08-07 17:39:00,2,26,0.0769230769230769
"5010","09BLA0716","09BLA0716_18",2018-08-09 16:09:00,0,28.5,0
"516","08CED5032","08CED5032_18",2018-08-30 21:36:00,3,23.44,0.127986348122867
"527","08CED2433","08CED2433_18",2018-08-29 15:47:00,1,11.5,0.0869565217391304
"531","08ISS4730","08ISS4730_18",2018-08-27 17:15:00,3,48,0.0625
"541","08ISS4884","08ISS4884_18",2018-08-29 16:30:00,3,19.4,0.154639175257732
"5510","08SAM2865","08SAM2865_18",2018-08-28 15:45:00,0,25,0
"56","08EVA3642","08EVA3642_18",2018-08-30 15:13:00,1,15.6,0.0641025641025641
"577","08EVA3813","08EVA3813_18",2018-08-30 20:40:00,1,17.6,0.0568181818181818
"581","09BLA0675","09BLA0675_18",2018-08-07 20:20:00,2,30,0.0666666666666667
"591","09BLA0817","09BLA0817_18",2018-08-08 17:00:00,0,12.2,0
"613","09LOW0753","09LOW0753_18",2018-08-09 19:32:00,0,2.84,0
"6210","09BLA0768","09BLA0768_18",2018-08-15 21:05:00,0,15.2,0
"632","09DUW0225","09DUW0225_18",2018-08-15 15:56:00,1,11.2,0.0892857142857143
"644","09DUW0277","09DUW0277_18",2018-08-20 20:00:00,0,16.8,0
"652","09BLA0771","09BLA0771_18",2018-07-30 18:37:00,2,16.8,0.119047619047619
"6610","09BLA0772","09BLA0772_18",2018-07-30 16:18:00,0,17.45,0
"673","09NEW2151","09NEW2151_18",2018-08-23 16:00:00,5,33.5,0.149253731343284
"6810","09LOW0325","09LOW0325_18",2018-08-15 18:10:00,0,13,0
"692","07GRN022903","07GRN022903_18",2018-09-06 16:38:00,4,25,0.16
"708","07RAG004615","07RAG004615_18",2018-09-06 20:52:00,2,8.7,0.229885057471264
"715","09DEE2208","09DEE2208_18",2018-09-06 16:10:00,0,30,0
"7210","08ISS4735","08ISS4735_18",2018-07-27 16:15:00,1,22.85,0.0437636761487965
"7310","07PAT187623","07PAT187623_18",2018-09-06 19:08:00,0,1.5,0
"744","09MIL0340","09MIL0340_18",2018-08-24 15:15:00,1,14,0.0714285714285714
"752","08CED2518","08CED2518_18",2018-08-01 16:00:00,0,33.5,0
"766","08WES0905","08WES0905_18",2018-08-02 20:52:00,2,20.5,0.0975609756097561
"776","Miller_SWSSD","Miller_SWSSD_18",2018-08-30 18:00:00,4,35,0.114285714285714
"781","09DEE2211","09DEE2211_18",2018-08-23 16:40:00,3,79.78,0.0376034093757834
"791","09MID1537","09MID1537_18",2018-09-06 18:50:00,0,8.88,0
"801","Miller_Cove","Miller_Cove_18",2018-08-30 16:00:00,1,17.6,0.0568181818181818
"811","WalkerPreserve","WalkerPreserve_18",2018-08-30 21:00:00,0,4.3,0
"821","BSE_1_MudMtnRd","BSE_1_MudMtnRd_18",2018-08-23 21:45:00,4,48.6,0.0823045267489712
"831","08LIT2682","08LIT2682_18",2018-09-10 20:45:00,0,14.6,0
"841","08SAM2855","08SAM2855_18",2018-09-10 16:00:00,0,18.4,0
"85","08LIT2585","08LIT2585_18",2018-09-10 17:50:00,3,42.5,0.0705882352941176
"861","08ISS4724","08ISS4724_18",2018-09-12 21:00:00,2,23.3,0.0858369098712446
"871","08NOR1750","08NOR1750_18",2018-09-13 20:15:00,2,17.2,0.116279069767442
"881","07SFS011059","07SFS011059_18",2018-09-12 20:45:00,0,32,0
"89","08NOR1370","08NOR1370_18",2018-09-13 15:19:00,2,53,0.0377358490566038
"901","08EAS1536","08EAS1536_18",2018-09-17 21:00:00,0,12.2,0
"911","07LMS103591","07LMS103591_18",2018-09-18 21:15:00,7,10.6,0.660377358490566
"921","08CED5046","08CED5046_18",2018-09-17 16:32:00,0,10,0
"931","08NOR2306","08NOR2306_18",2018-09-13 21:06:00,0,9.5,0
"941","08NOR1362","08NOR1362_18",2018-09-13 17:50:00,1,12,0.0833333333333333
"951","08LIT2781","08LIT2781_18",2018-09-17 15:30:00,1,7,0.142857142857143
"961","07SFS041891","07SFS041891_18",2018-09-18 17:23:00,1,21.7,0.0460829493087558
"971","07SFS011475","07SFS011475_18",2018-09-18 19:30:00,0,30,0
"981","07LST069191","07LST069191_18",2018-09-19 17:11:00,1,9.3,0.10752688172043
"991","07SFS009443","07SFS009443_18",2018-09-18 17:00:00,0,90,0
"1001","07TKL072439","07TKL072439_18",2018-09-17 21:22:00,2,20.9,0.0956937799043062
"1011","07LNT163403","07LNT163403_18",2018-09-19 20:48:00,4,28.8,0.138888888888889
"1021","07LNT130827","07LNT130827_18",2018-09-20 21:30:00,0,43,0
"1041","09COV1864","09COV1864_18",2018-09-20 19:18:00,1,11.3,0.0884955752212389
"1051","09DUW0091","09DUW0091_18",2018-09-19 15:40:00,1,30.6,0.0326797385620915
"1061","07LNT062039","07LNT062039_18",2018-09-20 17:30:00,6,72.3,0.0829875518672199
"1071","08EAS2546","08EAS2546_18",2018-09-24 17:40:00,0,5.35,0
"1081","07RAG042787","07RAG042787_18",2018-09-12 16:50:00,1,72.45,0.0138026224982747
"1091","08EAS2191","08EAS2191_18",2018-09-24 15:35:00,0,15.2,0
"1101","08WES1037","08WES1037_18",2018-09-19 21:30:00,0,5.9,0
"1111","09COV1862","09COV1862_18",2018-09-20 07:00:00,1,15.8,0.0632911392405063
"1131","09SOO0943","09SOO0943_18",2018-09-25 21:30:00,0,5.4,0
"1151","07STL184007","07STL184007_18",2018-09-26 16:30:00,1,88,0.0113636363636364
"1161","07CHR234411","07CHR234411_18",2018-09-25 21:15:00,1,44.4,0.0225225225225225
"1171","08LAK3627","08LAK3627_18",2018-09-25 16:15:00,1,27.6,0.036231884057971
"1181","07CHR070059","07CHR070059_18",2018-09-25 17:12:00,0,21.3,0
"1191","08LAK3628","08LAK3628_18",2018-09-25 17:50:00,0,18.4,0
"1201","09COV1756","09COV1756_18",2018-09-11 18:45:00,1,8,0.125
"1211","07RAG022147","07RAG022147_18",2018-10-01 16:30:00,3,24.4,0.122950819672131
"1221","07RAG002867","07RAG002867_18",2018-10-01 20:15:00,5,25.3,0.197628458498024
"1241","09COV1418","09COV1418_18",2018-09-27 18:30:00,2,29.4,0.0680272108843537
"1251","09NEW2128","09NEW2128_18",2018-09-27 15:55:00,1,28.3,0.0353356890459364
"1261","07LNT075179","07LNT075179_18",2018-09-28 18:30:00,1,12.5,0.08
"1271","BSE_8_268hAveSE","BSE_8_268hAveSE_18",2018-10-03 15:34:00,2,15.2,0.131578947368421
"1281","08WES1579","08WES1579_18",2018-10-02 20:30:00,0,15,0
"1291","08NOR2115","08NOR2115_18",2018-10-02 18:05:00,3,12.9,0.232558139534884
"132","09LOW0751","09LOW0751_18",2018-10-04 15:15:00,0,17.5,0
"133","08SAM2674","08SAM2674_18",2018-09-21 16:45:00,0,13.5,0
"1341","08LAK2827","08LAK2827_18",2018-07-26 17:00:00,0,32,0
"1351","08LAK3699","08LAK3699_18",2018-08-08 19:35:00,1,13.1,0.0763358778625954
"1361","08SAM2862","08SAM2862_18",2018-08-08 19:00:00,1,26,0.0384615384615385
"1371","08LAK3121","08LAK3121_18",2018-08-14 20:00:00,3,26.3,0.114068441064639
"1381","09SOO1283","09SOO1283_18",2018-08-21 18:20:00,0,58,0
"1391","09JEN1357","09JEN1357_18",2018-08-23 19:00:00,0,8,0
"1411","08LAK3880","08LAK3880_18",2018-10-04 18:40:00,1,15,0.0666666666666667
"1421","09JEN1318","09JEN1318_18",2018-08-23 20:30:00,0,7.5,0
"1441","08SAM3047","08SAM3047_18",2018-08-27 21:00:00,2,35,0.0571428571428571
"1451","08SAM1914","08SAM1914_18",2018-08-27 18:30:00,2,31,0.0645161290322581
"1481","07PAT231079","07PAT231079_18",2018-09-05 15:45:00,5,35,0.142857142857143
"1501","08BEA3312","08BEA3312_18",2018-08-28 20:10:00,0,18.8,0
"1521","08BEA3737","08BEA3737_18",2018-09-19 16:30:00,2,47,0.0425531914893617
"1531","08BEA3650","08BEA3650_18",2018-09-19 17:55:00,0,21.3,0
"1541","08BEA3747","08BEA3747_18",2018-09-27 16:24:00,1,26.6,0.037593984962406
"1551","08WES1490","08WES1490_18",2018-10-02 18:20:00,1,11.3,0.0884955752212389
"1561","08LAK3540","08LAK3540_18",2018-08-07 16:30:00,4,37.5,0.106666666666667
"1571","08SAM3045","08SAM3045_18",2018-08-08 17:00:00,0,14.6,0
"1591","07GRN077319","07GRN077319_18",2018-08-14 18:30:00,2,83,0.0240963855421687
"1601","09SOO1209","09SOO1209_18",2018-08-21 17:00:00,1,54,0.0185185185185185
"1611","09MID1744","09MID1744_18",2018-10-05 19:00:00,1,52,0.0192307692307692
"1621","09SOO1130","09SOO1130_18",2018-08-23 17:10:00,2,50,0.04
"1631","07TKL047047","07TKL047047_18",2018-10-08 16:40:00,2,11.8,0.169491525423729
"1641","07HAR025863","07HAR025863_18",2018-08-28 17:15:00,0,31,0
"1661","VashShing","VashShin_18",2018-08-29 19:19:00,2,41.6,0.0480769230769231
"1801","07CHR045515","07CHR045515_18",2018-09-26 19:45:00,1,47,0.0212765957446809
"1921","07RAG004615","07RAG004615_19",2019-07-29 15:30:00,3,20.6,0.145631067961165
"1941","07LMS055075","07LMS055075_19",2019-08-01 19:30:00,0,18.6,0
"1951","08CED4975","08CED4975_19",2019-07-31 17:30:00,0,2.9,0
"196","08CED5046","08CED5046_19",2019-07-31 20:00:00,5,13.4,0.373134328358209
"198","07SFS066611","07SFS066611_19",2019-08-01 16:15:00,2,20.1,0.099502487562189
"199","08CED5032","08CED5032_19",2019-07-31 16:00:00,5,10.9,0.458715596330275
"200","07RAG018227","07RAG018227_19",2019-07-29 18:30:00,1,47,0.0212765957446809
"201","08ISS4730","08ISS4730_19",2019-07-29 22:00:00,3,26.7,0.112359550561798
"203","08ISS4735","08ISS4735_19",2019-07-23 20:00:00,1,17.9,0.0558659217877095
"205","09DUW0091","09DUW0091_19",2019-07-23 19:30:00,1,15.9,0.0628930817610063
"207","08CED4192","08CED4192_19",2019-07-23 16:00:00,0,56.8,0
"208","08LIT2781","08LIT2781_19",2019-08-05 15:45:00,1,20.1,0.0497512437810945
"209","07CHR045515","07CHR045515_19",2019-08-08 16:30:00,1,35.1,0.0284900284900285
"213","07RAG043443","07RAG043443_19",2019-08-07 18:45:00,2,55.4,0.036101083032491
"215","07RAG002867","07RAG002867_19",2019-08-07 15:45:00,6,12.8,0.46875
"218","08CED2518","08CED2518_19",2019-08-01 17:30:00,1,25.3,0.0395256916996047
"219","08CED2711","08CED2711_19",2019-08-01 20:45:00,5,7.3,0.684931506849315
"220","08EVA3642","08EVA3642_19",2019-08-06 07:00:00,2,10.5,0.19047619047619
"222","07LMS033235","07LMS033235_19",2019-08-14 16:05:00,2,29.6,0.0675675675675676
"223","08ISS3962","08ISS3962_19",2019-07-18 16:50:00,0,25,0
"224","08WES0905","08WES0905_19",2019-07-18 21:30:00,1,13.1,0.0763358778625954
"225","08EAS1536","08EAS1536_19",2019-07-18 15:10:00,0,27.5,0
"226","07RAG022147","07RAG022147_19",2019-08-14 17:15:00,3,11.3,0.265486725663717
"227","08WES1178","08WES1178_19",2019-07-18 18:10:00,0,15,0
"229","07TKL072439","07TKL072439_19",2019-07-22 18:35:00,0,19.5,0
"230","09SOO1130","09SOO1130_19",2019-08-15 19:00:00,3,50.9,0.0589390962671906
"231","09DUW0277","09DUW0277_19",2019-08-12 19:20:00,0,17,0
"232","08CED2898","08CED2898_19",2019-08-01 15:12:00,2,13.9,0.143884892086331
"233","08EAS1964","08EAS1964_19",2019-08-20 21:00:00,1,46.5,0.021505376344086
"234","08NOR1750","08NOR1750_19",2019-08-19 21:15:00,5,11.7,0.427350427350427
"235","08BEA3474","08BEA3474_19",2019-07-17 15:11:00,0,70.5,0
"236","08BEA3747","08BEA3747_19",2019-08-19 15:45:00,2,21,0.0952380952380952
"237","08LIT2682","08LIT2682_19",2019-07-17 18:30:00,1,15.8,0.0632911392405063
"238","08EAS2546","08EAS2546_19",2019-08-20 17:45:00,0,3.5,0
"239","08ISS3877","08ISS3877_19",2019-07-15 16:00:00,0,53,0
"240","08BEA3737","08BEA3737_19",2019-07-16 19:30:00,1,26.6,0.037593984962406
"241","08BEA3312","08BEA3312_19",2019-06-16 16:13:00,0,34.5,0
"242","08BEA3571","08BEA3571_19",2019-08-19 18:45:00,0,10.1,0
"243","09MID1374","09MID1374_19",2019-08-07 16:00:00,1,15.4,0.0649350649350649
"245","09DUW0225","09DUW0225_19",2019-07-23 15:45:00,1,13.7,0.072992700729927
"246","09COV1862","09COV1862_19",2019-07-18 15:30:00,1,20.3,0.0492610837438424
"247","09SOO1134","09SOO1134_19",2019-08-15 15:15:00,1,50.9,0.0196463654223969
"248","09DEE2211","09DEE2211_19",2019-08-19 16:20:00,0,18.6,0
"251","08LAK3879","08LAK3879_19",2019-08-12 15:15:00,0,8.6,0
"254","08SAM2674","08SAM2674_19",2019-08-06 16:45:00,0,10.3,0
"255","08NOR1362","08NOR1362_19",2019-08-06 19:40:00,1,10.2,0.0980392156862745
"256","08ISS4748","08ISS4748_19",2019-07-22 19:50:00,3,20.9,0.143540669856459
"259","07TKL047047","07TKL047047_19",2019-08-12 15:30:00,4,12,0.333333333333333
"263","Miller_Cove","Miller_Cove_19",2019-08-26 17:00:00,3,20.1,0.149253731343284
"264","Miller_SWSSD","Miller_SWSSD_19",2019-08-26 15:20:00,2,35,0.0571428571428571
"265","08WES1340","08WES1340_19",2019-08-26 18:15:00,2,27.6,0.072463768115942
"266","WalkerPreserve","WalkerPreserve_19",2019-08-26 15:15:00,0,3,0
"267","07STL080295","07STL080295_19",2019-08-22 17:30:00,0,40.8,0
"268","07CHR234411","07CHR234411_19",2019-08-22 21:15:00,1,23.8,0.0420168067226891
"269","07HAR025863","07HAR025863_19",2019-08-20 15:54:00,0,26.2,0
"270","07GRN022903","07GRN022903_19",2019-08-20 18:39:00,1,32.8,0.0304878048780488
"271","08LAK3628","08LAK3628_19",2019-08-22 15:15:00,0,22.7,0
"273","09LOW0751","09LOW0751_19",2019-09-05 18:15:00,0,15,0
"274","08SAM2865","08SAM2865_19",2019-08-27 15:30:00,0,19.3,0
"275","08NOR1370","08NOR1370_19",2019-08-22 19:30:00,4,24.2,0.165289256198347
"276","08LAK3540","08LAK3540_19",2019-08-29 15:15:00,3,35.7,0.0840336134453781
"277","07PAT166087","07PAT166087_19",2019-07-22 16:37:00,1,15.2,0.0657894736842105
"278","09LOW0753","09LOW0753_19",2019-09-05 16:15:00,0,10.1,0
"279","07PAT187623","07PAT187623_19",2019-08-28 15:45:00,1,1.5,0.666666666666667
"280","09JEN1318","09JEN1318_19",2019-09-05 20:15:00,0,4.3,0
"281","BSE_21_GolfCrs","BSE_21_GolfCrs_19",2019-09-10 16:45:00,1,15.5,0.0645161290322581
"282","09DEE2208","09DEE2208_19",2019-08-28 21:00:00,1,60.5,0.0165289256198347
"283","09BLA0768","09BLA0768_19",2019-08-28 18:20:00,0,23,0
"284","09NEW2128","09NEW2128_19",2019-09-10 19:30:00,0,21.6,0
"288","09MIL0340","09MIL0340_19",2019-09-10 17:15:00,0,6,0
"289","08LAK3121","08LAK3121_19",2019-08-06 20:17:00,0,7.4,0
"291","07PAT231079","07PAT231079_19",2019-08-28 17:53:00,2,12.8,0.15625
"292","09LOW0325","09LOW0325_19",2019-09-10 15:15:00,0,9.6,0
"294","08LAK2827","08LAK2827_19",2019-09-11 20:00:00,1,20.6,0.0485436893203883
"295","08EAS2540","08EAS2540_19",2019-09-11 17:30:00,1,10.4,0.0961538461538461
"296","08EAS2446","08EAS2446_19",2019-09-11 15:24:00,0,28.4,0
"297","07SFS041891","07SFS041891_19",2019-08-27 20:27:00,0,65.4,0
"300","09COV1165","09COV1165_19",2019-09-12 15:30:00,0,25.2,0
"302","07PAT001415","07PAT001415_19",2019-08-12 18:30:00,0,10.6,0
"305","08WES1037","08WES1037_19",2019-09-18 20:15:00,0,6.1,0
"306","08EVA3640","08EVA3640_19",2019-09-16 15:40:00,1,11.1,0.0900900900900901
"307","08EAS2191","08EAS2191_19",2019-09-16 18:05:00,0,5.1,0
"308","09COV1418","09COV1418_19",2019-09-19 17:15:00,0,22.2,0
"311","09BLA0771","09BLA0771_19",2019-09-19 15:15:00,0,10.2,0
"312","09SOO1022","09SOO1022_19",2019-09-19 20:15:00,1,14.1,0.0709219858156028
"313","07HAR070087","07HAR070087_19",2019-09-19 15:00:00,0,3.4,0
"314","08LAK3627","08LAK3627_19",2019-09-23 15:15:00,0,12.6,0
"315","08WES0629","08WES0629_19",2019-09-25 18:30:00,1,16.6,0.0602409638554217
"316","08WES1490","08WES1490_19",2019-09-23 19:15:00,1,11.8,0.0847457627118644
"317","08CED2433","08CED2433_19",2019-09-23 17:15:00,2,11.5,0.173913043478261
"318","07LNT075179","07LNT075179_19",2019-10-02 17:15:00,6,4.7,1.27659574468085
"321","08LIT2602","08LIT2602_19",2019-10-01 15:15:00,1,16.2,0.0617283950617284
"326","09BLA0716","09BLA0716_19",2019-09-26 15:00:00,0,6.6,0
"327","08SAM1914","08SAM1914_19",2019-10-01 20:45:00,1,9.1,0.10989010989011
"328","07CHR070059","07CHR070059_19",2019-09-03 16:00:00,1,20.7,0.0483091787439614
"329","08LIT2603","08LIT2603_19",2019-10-07 20:15:00,0,7.1,0
"331","07GRN077319","07GRN077319_19",2019-09-03 18:00:00,2,56.3,0.0355239786856128
"332","09SOO1209","09SOO1209_19",2019-09-26 19:45:00,0,8.5,0
"334","09BLA0675","09BLA0675_19",2019-09-24 15:10:00,1,16.9,0.0591715976331361
"335","09MIL0390","09MIL0390_19",2019-09-24 17:30:00,0,18.2,0
"338","09NEW2076","09NEW2076_19",2019-10-07 16:00:00,1,5.3,0.188679245283019
"339","09MID1537","09MID1537_19",2019-09-26 17:30:00,0,4.7,0
"342","09NEW2102","09NEW2102_19",2019-10-03 16:15:00,1,21.1,0.0473933649289099
"344","09JEN1357","09JEN1357_19",2019-09-24 20:00:00,1,5.4,0.185185185185185
"346","07PAT228627","07PAT228627_19",2019-09-25 15:30:00,1,6,0.166666666666667
"347","09DEE2294","09DEE2294_19",2019-09-30 16:15:00,1,8.8,0.113636363636364
"348","08EAS2631","08EAS2631_19",2019-09-18 17:00:00,2,21.9,0.091324200913242
"352","07SFS009443","07SFS009443_19",2019-09-19 17:45:00,1,73.1,0.0136798905608755
"358","08ISS4724","08ISS4724_19",2019-10-11 15:15:00,2,49,0.0408163265306122
"360","09MID1958","09MID1958_19",2019-07-29 20:45:00,0,26,0
"362","08BEA3914","08BEA3914_19",2019-08-06 19:25:00,0,19.2,0
"366","09SOO1283","09SOO1283_19",2019-09-19 16:15:00,2,30,0.0666666666666667
"367","08ISS3958","08ISS3958_19",2019-08-29 16:15:00,0,7,0
"369","08LIT2585","08LIT2585_19",2019-09-17 18:00:00,1,30,0.0333333333333333
"370","08EAS2058","08EAS2058_19",2019-09-04 21:10:00,1,53,0.0188679245283019
"371","08SAM2862","08SAM2862_19",2019-09-18 16:45:00,0,32,0
"372","07LMS026663","07LMS026663_19",2019-09-05 17:15:00,0,147,0
"373","08WES0903","08WES0903_19",2019-10-01 17:15:00,1,15,0.0666666666666667
"376","08BEA3826","08BEA3826_19",2019-08-06 17:40:00,4,26.2,0.152671755725191
"377","08SAM3047","08SAM3047_19",2019-08-28 16:15:00,3,45,0.0666666666666667
"380","08WES0622","08WES0622_19",2019-08-28 20:05:00,0,35,0
"382","08SAM0000","08SAM0000_19",2019-09-24 19:30:00,1,30,0.0333333333333333
"383","08LAK3699","08LAK3699_19",2019-09-09 18:15:00,0,23,0
"384","08ISS4573","08ISS4573_19",2019-08-29 18:00:00,1,19,0.0526315789473684
"385","VashShing","VashShin_19",2019-09-30 15:45:00,1,57,0.0175438596491228
"386","09BLA0817","09BLA0817_19",2019-09-04 18:55:00,0,26,0
"387","VashChris","VashChris_19",2019-09-30 17:45:00,1,30,0.0333333333333333
"388","28A","28A_19",2019-09-30 19:00:00,3,39.2,0.0765306122448979
"396","08CED2898","08CED2898_20",2020-08-05 16:50:00,0,9,0
"398","08BEA3650","08BEA3650_20",2020-08-10 17:45:00,1,17,0.0588235294117647
"399","08BEA3571","08BEA3571_20",2020-08-12 21:00:00,0,5.4,0
"400","08EVA3640","08EVA3640_20",2020-08-04 16:00:00,0,21,0
"402","09BLA0675","09BLA0675_20",2020-07-27 17:00:00,0,65.5,0
"403","08LAK3879","08LAK3879_20",2020-08-06 17:15:00,2,12.8,0.15625
"404","08WES1178","08WES1178_20",2020-07-30 15:30:00,1,8.3,0.120481927710843
"405","08NOR1370","08NOR1370_20",2020-07-30 18:30:00,0,12.2,0
"406","08CED5046","08CED5046_20",2020-07-28 17:45:00,4,31.6,0.126582278481013
"407","08SAM2855","08SAM2855_20",2020-08-12 20:30:00,0,13,0
"408","08NOR1750","08NOR1750_20",2020-08-12 16:45:00,3,43,0.0697674418604651
"409","07PAT231079","07PAT231079_20",2020-07-29 16:30:00,0,39,0
"410","09MIL0390","09MIL0390_20",2020-07-22 18:45:00,0,37,0
"411","09MIL0340","09MIL0340_20",2020-07-22 17:00:00,0,5.85,0
"412","09DUW0225","09DUW0225_20",2020-07-22 22:15:00,0,21.6,0
"413","08CED5032","08CED5032_20",2020-07-28 21:30:00,2,15,0.133333333333333
"414","09BLA0716","09BLA0716_20",2020-07-27 19:45:00,0,25.6,0
"415","09COV1418","09COV1418_20",2020-07-29 21:00:00,0,15,0
"416","09MID1374","09MID1374_20",2020-07-29 17:30:00,0,15.2,0
"418","08CED4192","08CED4192_20",2020-08-05 19:30:00,1,42,0.0238095238095238
"419","08CED2711","08CED2711_20",2020-08-11 20:00:00,5,33.9,0.147492625368732
"420","09BLA0771","09BLA0771_20",2020-08-11 15:30:00,3,15.6,0.192307692307692
"421","09BLA0772","09BLA0772_20",2020-08-11 17:30:00,0,22,0
"423","07TKL072439","07TKL072439_20",2020-08-13 20:00:00,1,18.3,0.0546448087431694
"424","08ISS4735","08ISS4735_20",2020-08-18 19:45:00,3,22,0.136363636363636
"425","08ISS4730","08ISS4730_20",2020-08-18 16:30:00,2,46.5,0.043010752688172
"426","09COV1165","09COV1165_20",2020-07-23 16:35:00,0,69.62,0
"427","09JEN1318","09JEN1318_20",2020-07-23 20:30:00,0,5,0
"428","08CED2433","08CED2433_20",2020-08-17 16:20:00,2,11.5,0.173913043478261
"429","09BLA0722","09BLA0722_20",2020-08-17 19:40:00,2,23.7,0.0843881856540084
"430","07STL080295","07STL080295_20",2020-08-25 19:15:00,0,31,0
"431","07PAT001415","07PAT001415_20",2020-08-25 16:00:00,0,14,0
"432","08ISS4294","08ISS4294_20",2020-07-29 15:50:00,0,29.4,0
"434","08ISS4724","08ISS4724_20",2020-07-28 18:15:00,0,16.47,0
"435","09SOO1134","09SOO1134_20",2020-08-04 16:00:00,0,53.5,0
"436","08CED2518","08CED2518_20",2020-08-05 23:10:00,0,30,0
"437","09NEW2102","09NEW2102_20",2020-08-06 21:45:00,2,22.5,0.0888888888888889
"438","09DEE2211","09DEE2211_20",2020-08-06 16:35:00,0,35.2,0
"439","09DEE2208","09DEE2208_20",2020-08-06 19:00:00,2,45.45,0.044004400440044
"440","07PAT187623","07PAT187623_20",2020-08-10 20:00:00,0,10.6,0
"441","07PAT166087","07PAT166087_20",2020-08-10 17:15:00,1,53.5,0.0186915887850467
"442","07LMS213875","07LMS213875_20",2020-08-12 20:30:00,0,43.1,0
"443","BSE_1_MudMtnRd","BSE_1_MudMtnRd_20",2020-08-31 18:00:00,0,16.6,0
"444","BSE_21_GolfCrs","BSE_21_GolfCrs_20",2020-09-02 20:15:00,1,26.5,0.0377358490566038
"445","BSE_8_268hAveSE","BSE_8_268hAveSE_20",2020-08-31 20:50:00,1,29,0.0344827586206897
"446","09SOO1130","09SOO1130_20",2020-09-02 16:45:00,6,42,0.142857142857143
"447","07RAG022147","07RAG022147_20",2020-09-03 16:50:00,3,14,0.214285714285714
"448","07SFS041891","07SFS041891_20",2020-09-03 20:25:00,0,22,0
"449","07LNT130827","07LNT130827_20",2020-08-26 20:00:00,0,58.4,0
"450","WalkerPreserve","WalkerPreserve_20",2020-08-27 21:15:00,0,2.8,0
"451","Miller_SWSSD","Miller_SWSSD_20",2020-08-27 18:55:00,1,62,0.0161290322580645
"452","Miller_Cove","Miller_Cove_20",2020-08-27 16:15:00,0,15.2,0
"453","09JEN1357","09JEN1357_20",2020-08-17 22:00:00,0,4.1,0
"454","08LAK3628","08LAK3628_20",2020-08-19 16:40:00,0,24,0
"455","09BLA0768","09BLA0768_20",2020-08-19 19:40:00,0,25,0
"456","08EAS1964","08EAS1964_20",2020-08-19 22:00:00,3,85,0.0352941176470588
"457","09DEE2163","09DEE2163_20",2020-08-24 17:50:00,0,2.5,0
"458","09DUW0277","09DUW0277_20",2020-08-24 20:30:00,0,19.3,0
"459","09LOW0325","09LOW0325_20",2020-08-24 22:10:00,1,10,0.1
"460","08LIT2682","08LIT2682_20",2020-08-27 20:30:00,4,34.5,0.115942028985507
"461","08LAK3121","08LAK3121_20",2020-08-13 16:30:00,2,22.4,0.0892857142857143
"462","07LMS033235","07LMS033235_20",2020-08-12 17:30:00,6,34,0.176470588235294
"463","08LIT2692","08LIT2692_20",2020-08-11 21:23:00,2,28,0.0714285714285714
"464","08EAS1536","08EAS1536_20",2020-08-31 17:45:00,1,27,0.037037037037037
"465","08LIT2685","08LIT2685_20",2020-08-11 17:30:00,1,13.5,0.0740740740740741
"466","08EVA3637","08EVA3637_20",2020-08-20 21:30:00,0,10.6,0
"467","08LAK2827","08LAK2827_20",2020-08-13 19:45:00,1,19.3,0.0518134715025907
"468","09COV1756","09COV1756_20",2020-07-28 19:50:00,0,19.4,0
"469","08EAS2191","08EAS2191_20",2020-08-20 18:40:00,2,30.8,0.0649350649350649
"470","08EVA3642","08EVA3642_20",2020-09-02 16:00:00,0,11.5,0
"471","08SAM1914","08SAM1914_20",2020-08-21 16:45:00,0,14.2,0
"472","08LIT2781","08LIT2781_20",2020-08-21 07:10:00,0,10.67,0
"473","08WES1490","08WES1490_20",2020-09-01 17:45:00,0,13,0
"474","08BEA3747","08BEA3747_20",2020-08-31 21:00:00,0,23.1,0
"475","09COV1862","09COV1862_20",2020-07-30 16:30:00,1,16,0.0625
"476","08SAM2674","08SAM2674_20",2020-08-20 16:15:00,0,15.6,0
"477","08WES0905","08WES0905_20",2020-08-25 22:15:00,2,14.7,0.136054421768707
"478","08NOR1362","08NOR1362_20",2020-08-25 19:00:00,1,51.2,0.01953125
"479","08NOR2306","08NOR2306_20",2020-08-25 16:00:00,0,6.1,0
"480","08EAS2631","08EAS2631_20",2020-09-03 18:20:00,2,40.5,0.0493827160493827
"481","07RAG004615","07RAG004615_20",2020-09-01 16:15:00,2,16.6,0.120481927710843
"482","08ISS3877","08ISS3877_20",2020-07-20 17:30:00,0,30,0
"483","09LOW0753","09LOW0753_20",2020-08-05 19:10:00,0,3.7,0
"484","07RAG018227","07RAG018227_20",2020-09-01 19:30:00,2,70.8,0.0282485875706215
"485","08EAS2272","08EAS2272_20",2020-09-03 21:00:00,0,14.5,0
"486","09COV1864","09COV1864_20",2020-08-03 21:00:00,2,8.2,0.24390243902439
"487","08SAM2865","08SAM2865_20",2020-09-02 16:15:00,0,22.6,0
"488","08WES1579","08WES1579_20",2020-09-01 15:52:00,0,7.6,0
"489","07HAR070087","07HAR070087_20",2020-09-02 16:30:00,0,13.8,0
"490","08WES1037","08WES1037_20",2020-09-01 22:05:00,0,12.7,0
"491","08WES1340","08WES1340_20",2020-09-01 20:00:00,4,21,0.19047619047619
"492","07SFS009443","07SFS009443_20",2020-08-24 21:30:00,1,24,0.0416666666666667
"493","07SFS066611","07SFS066611_20",2020-08-24 17:40:00,0,7.7,0
"494","07RAG002867","07RAG002867_20",2020-08-26 18:40:00,3,16,0.1875
"495","09DUW0091","09DUW0091_20",2020-07-28 15:30:00,0,16.4,0
"496","09MID1817","09MID1817_20",2020-08-03 18:15:00,0,9.2,0
"498","07HAR025863","07HAR025863_20",2020-08-05 16:40:00,0,15,0
"499","08NOR2115","08NOR2115_20",2020-08-18 21:40:00,2,57,0.0350877192982456
"500","09MID1537","09MID1537_20",2020-09-22 20:00:00,0,3.6,0
"501","08EAS2446","08EAS2446_20",2020-09-22 15:10:00,1,20.6,0.0485436893203883
"502","08EAS2540","08EAS2540_20",2020-09-22 17:15:00,5,20,0.25
"503","08LAK3540","08LAK3540_20",2020-09-21 16:00:00,3,22.5,0.133333333333333
"504","08LAK3627","08LAK3627_20",2020-09-21 17:55:00,0,8.37,0
"505","08EAS2546","08EAS2546_20",2020-09-21 22:00:00,0,3.2,0
"506","09MID2426","09MID2426_20",2020-09-23 16:30:00,0,4.2,0
"507","07LNT062039","07LNT062039_20",2020-09-22 17:15:00,1,58.6,0.0170648464163823
"508","07LNT075179","07LNT075179_20",2020-09-22 20:15:00,5,16.8,0.297619047619048
"509","07CHR070059","07CHR070059_20",2020-09-29 18:15:00,0,21.6,0
"510","07CHR045515","07CHR045515_20",2020-09-29 21:45:00,0,52,0
"511","07RAG043443","07RAG043443_20",2020-09-30 16:30:00,1,38.5,0.025974025974026
"512","07GRN077319","07GRN077319_20",2020-09-30 19:45:00,1,35,0.0285714285714286
"513","09SOO1022","09SOO1022_20",2020-10-01 20:45:00,1,17,0.0588235294117647
"514","09SOO1209","09SOO1209_20",2020-10-01 18:15:00,0,23.5,0
"515","08LIT2602","08LIT2602_20",2020-09-22 21:45:00,0,41.5,0
"517","07CHR234411","07CHR234411_20",2020-10-02 16:30:00,2,48,0.0416666666666667
"521","08ISS4748","08ISS4748_20",2020-08-03 20:00:00,2,26,0.0769230769230769
"522","08ISS3962","08ISS3962_20",2020-08-03 22:20:00,1,18,0.0555555555555556
"523","08ISS4884","08ISS4884_20",2020-08-03 17:00:00,0,21,0
"524","09NEW2128","09NEW2128_20",2020-09-30 18:45:00,1,16.6,0.0602409638554217
"525","08BEA3737","08BEA3737_20",2020-07-21 20:20:00,2,25,0.08
"526","09DEE2294","09DEE2294_20",2020-09-30 16:30:00,2,18,0.111111111111111
"529","08LAK3699","08LAK3699_20",2020-10-07 21:50:00,2,16.8,0.119047619047619
"532","07GRN022903","07GRN022903_20",2020-09-23 16:30:00,1,38,0.0263157894736842
"533","07LMS055075","07LMS055075_20",2020-09-21 16:45:00,0,22.8,0
"534","07TKL047047","07TKL047047_20",2020-09-21 20:00:00,0,10,0
"535","07PAT228627","07PAT228627_20",2020-10-07 19:00:00,0,6.7,0
"544","07LNT163403","07LNT163403_20",2020-09-29 17:45:00,1,8,0.125
"545","08LIT2603","08LIT2603_20",2020-09-29 22:00:00,3,11,0.272727272727273
"546","08EAS2058","08EAS2058_20",2020-07-27 19:30:00,2,57,0.0350877192982456
"547","07LMS026663","07LMS026663_20",2020-09-22 18:55:00,0,70,0
"548","08WES0622","08WES0622_20",2020-08-06 19:01:00,0,38,0
"549","09NEW2076","09NEW2076_20",2020-10-01 21:00:00,2,25,0.08
"550","07SFS011475","07SFS011475_20",2020-09-22 21:11:00,0,44,0
"551","08WES0629","08WES0629_20",2020-08-06 20:45:00,2,27,0.0740740740740741
"552","09BLA0817","09BLA0817_20",2020-08-13 18:30:00,1,31,0.032258064516129
"553","VashShing","VashShin_20",2020-09-22 21:20:00,5,50,0.1
"554","08BEA3914","08BEA3914_20",2020-08-20 17:00:00,1,17.3,0.0578034682080925
"555","08BEA3826","08BEA3826_20",2020-08-20 18:24:00,2,24,0.0833333333333333
"556","09MID1958","09MID1958_20",2020-09-29 17:45:00,2,43,0.0465116279069767
"557","08SAM3047","08SAM3047_20",2020-08-20 20:35:00,0,15.5,0
"558","09MID1744","09MID1744_20",2020-09-29 20:25:00,1,53,0.0188679245283019
"559","08EVA3813","08EVA3813_20",2020-08-27 20:00:00,0,45,0
"560","08SAM2862","08SAM2862_20",2020-09-30 17:00:00,0,27,0
"561","07STL184007","07STL184007_20",2020-09-10 18:00:00,0,42,0
"562","08SAM3045","08SAM3045_20",2020-09-30 20:00:00,0,18,0
"563","08LIT2585","08LIT2585_20",2020-09-21 16:30:00,1,40,0.025
"564","07RAG012515","07RAG012515_20",2020-08-27 17:10:00,0,17.4,0
"565","08ISS4573","08ISS4573_20",2020-10-01 17:40:00,0,33.2,0
"568","07LMS103591","07LMS103591_20",2020-09-22 16:42:00,2,24,0.0833333333333333
"569","08LAK3880","08LAK3880_20",2020-10-01 19:30:00,0,30,0
"570","28A","28A_20",2020-10-05 20:30:00,3,53,0.0566037735849057
"571","VashChris","VashChris_20",2020-10-05 22:00:00,0,29,0
"572","09SOO1283","09SOO1283_20",2020-10-06 21:00:00,0,50,0
"573","07SFS011059","07SFS011059_20",2020-10-07 16:30:00,0,48,0
"574","08BEA3312","08BEA3312_20",2020-09-21 18:50:00,0,25,0
"575","09NEW1657","09NEW1657_20",2020-10-01 17:53:00,1,21.8,0.0458715596330275
"576","08SAM0000","08SAM0000_20",2020-09-09 19:00:00,3,45,0.0666666666666667
"579","07LMS093027","07LMS093027_20",2020-10-07 19:21:00,0,55,0
"580","09LOW0751","09LOW0751_20",2020-10-01 18:30:00,1,18.2,0.0549450549450549
"588","08WES0905","08WES0905_21",2021-07-26 22:30:00,4,41.7,0.0959232613908873
"589","07RAG004615","07RAG004615_21",2021-08-09 17:00:00,0,19.4,0
"590","07PAT166087","07PAT166087_21",2021-08-09 20:00:00,1,17.4,0.0574712643678161
"593","07TKL072439","07TKL072439_21",2021-07-20 19:30:00,4,28.2,0.141843971631206
"594","09COV1864","09COV1864_21",2021-07-22 19:00:00,0,21.4,0
"595","09NEW2102","09NEW2102_21",2021-07-28 21:00:00,0,40,0
"596","09DEE2211","09DEE2211_21",2021-07-28 17:00:00,0,59.5,0
"597","09NEW2128","09NEW2128_21",2021-07-28 19:30:00,0,15.5,0
"599","08ISS3877","08ISS3877_21",2021-07-27 15:45:00,0,27.9,0
"600","07PAT231079","07PAT231079_21",2021-07-21 16:30:00,1,35.5,0.028169014084507
"601","09COV1862","09COV1862_21",2021-07-22 15:30:00,1,36.75,0.0272108843537415
"602","08WES1490","08WES1490_21",2021-08-12 15:30:00,1,8.6,0.116279069767442
"603","08WES1579","08WES1579_21",2021-08-12 18:20:00,0,10.2,0
"604","08LAK3540","08LAK3540_21",2021-07-28 20:00:00,2,34.8,0.0574712643678161
"605","08EAS2546","08EAS2546_21",2021-08-19 16:00:00,0,5.2,0
"608","08NOR2115","08NOR2115_21",2021-08-24 20:30:00,0,14.6,0
"610","08LAK3121","08LAK3121_21",2021-08-24 16:45:00,1,16.4,0.0609756097560976
"611","08LIT2692","08LIT2692_21",2021-08-12 18:15:00,2,36,0.0555555555555556
"614","07HAR070087","07HAR070087_21",2021-07-20 17:15:00,0,12.3,0
"615","08EVA3642","08EVA3642_21",2021-07-20 20:15:00,0,11.5,0
"618","07STL080295","07STL080295_21",2021-09-02 20:30:00,0,40.4,0
"621","08EAS2631","08EAS2631_21",2021-07-22 18:36:00,2,60,0.0333333333333333
"622","07GRN022903","07GRN022903_21",2021-08-23 17:05:00,0,5,0
"623","08CED2898","08CED2898_21",2021-07-22 16:15:00,0,18.8,0
"624","08SAM2674","08SAM2674_21",2021-08-26 16:45:00,0,36.4,0
"625","08LIT2602","08LIT2602_21",2021-08-12 22:00:00,1,34.5,0.0289855072463768
"626","07SFS066611","07SFS066611_21",2021-07-26 17:20:00,0,12.9,0
"627","07LNT062039","07LNT062039_21",2021-08-23 20:45:00,0,48.2,0
"628","08ISS4748","08ISS4748_21",2021-07-26 20:50:00,0,26.8,0
"629","08BEA3474","08BEA3474_21",2021-08-26 21:00:00,0,9.5,0
"630","08CED4192","08CED4192_21",2021-08-02 17:00:00,0,58.2,0
"631","08SAM1914","08SAM1914_21",2021-07-19 16:00:00,0,23.4,0
"633","09SOO1022","09SOO1022_21",2021-08-04 17:30:00,1,13.8,0.072463768115942
"634","BSE_1_MudMtnRd","BSE_1_MudMtnRd_21",2021-09-01 16:30:00,0,7.3,0
"635","07LNT130827","07LNT130827_21",2021-08-25 18:00:00,0,30,0
"636","09MIL0340","09MIL0340_21",2021-07-19 16:00:00,1,13.8,0.072463768115942
"637","09MID1817","09MID1817_21",2021-07-19 21:45:00,0,16.3,0
"638","07PAT001415","07PAT001415_21",2021-09-02 17:00:00,0,11.7,0
"639","09SOO1134","09SOO1134_21",2021-08-04 20:30:00,0,58,0
"640","09MIL0390","09MIL0390_21",2021-07-19 19:15:00,0,16.3,0
"641","09JEN1357","09JEN1357_21",2021-08-02 22:15:00,0,5.8,0
"642","07LNT075179","07LNT075179_21",2021-08-24 18:30:00,0,42.4,0
"643","09JEN1318","09JEN1318_21",2021-08-02 20:30:00,0,2.8,0
"645","09SOO0943","09SOO0943_21",2021-08-12 19:15:00,0,13.5,0
"646","07SFS041891","07SFS041891_21",2021-09-02 20:45:00,0,29.8,0
"647","09LOW0753","09LOW0753_21",2021-08-12 16:00:00,0,28.4,0
"649","08WES1340","08WES1340_21",2021-08-30 16:45:00,1,18.2,0.0549450549450549
"650","08NOR1370","08NOR1370_21",2021-08-09 21:00:00,1,27.1,0.03690036900369
"651","08BEA3747","08BEA3747_21",2021-08-09 17:00:00,0,15.6,0
"653","BSE_21_GolfCrs","BSE_21_GolfCrs_21",2021-09-01 21:00:00,0,16.8,0
"654","BSE_8_268hAveSE","BSE_8_268hAveSE_21",2021-09-01 19:15:00,0,16.6,0
"658","09DUW0277","09DUW0277_21",2021-08-18 18:30:00,0,19.25,0
"659","09BLA0756","09BLA0756_21",2021-09-20 20:30:00,0,19.1,0
"660","WalkerPreserve","WalkerPreserve_21",2021-09-20 16:15:00,0,8.2,0
"661","09BLA0722","09BLA0722_21",2021-09-20 18:00:00,0,18.6,0
"662","07LMS093027","07LMS093027_21",2021-09-16 20:30:00,0,40.9,0
"663","07SFS011475","07SFS011475_21",2021-09-16 17:00:00,0,72.2,0
"664","09BLA0675","09BLA0675_21",2021-09-13 19:30:00,0,18.3,0
"665","09BLA0716","09BLA0716_21",2021-09-13 16:45:00,0,16.2,0
"666","08LAK3628","08LAK3628_21",2021-09-21 16:00:00,0,32.8,0
"667","08CED2433","08CED2433_21",2021-09-14 16:15:00,0,12.1,0
"668","08LAK3879","08LAK3879_21",2021-09-21 20:45:00,1,23.1,0.0432900432900433
"669","08CED2711","08CED2711_21",2021-09-14 21:00:00,1,31,0.032258064516129
"670","09NEW1657","09NEW1657_21",2021-09-15 16:45:00,0,11.8,0
"671","08EVA3637","08EVA3637_21",2021-09-16 15:45:00,0,11.1,0
"672","09BLA0772","09BLA0772_21",2021-09-15 21:00:00,0,18.35,0
"674","07RAG018227","07RAG018227_21",2021-09-22 17:00:00,1,52,0.0192307692307692
"675","07HAR025863","07HAR025863_21",2021-09-23 19:45:00,0,14.8,0
"676","07GRN077319","07GRN077319_21",2021-09-23 21:35:00,0,31.75,0
"677","08EVA3640","08EVA3640_21",2021-09-23 16:30:00,0,14.6,0
"678","09NEW2076","09NEW2076_21",2021-09-21 20:00:00,0,14.3,0
"679","08SAM2865","08SAM2865_21",2021-09-23 19:45:00,0,23,0
"680","09MID1374","09MID1374_21",2021-09-21 17:00:00,0,5.7,0
"681","07LMS213875","07LMS213875_21",2021-09-13 17:15:00,0,16.2,0
"682","08EAS2272","08EAS2272_21",2021-09-20 18:00:00,0,12.4,0
"683","07SFS009443","07SFS009443_21",2021-09-13 21:15:00,0,39.3,0
"684","08BEA3571","08BEA3571_21",2021-09-16 18:30:00,0,8.6,0
"685","Miller_SWSSD","Miller_SWSSD_21",2021-09-14 19:50:00,0,16.6,0
"686","07RAG022147","07RAG022147_21",2021-09-22 21:15:00,0,7.8,0
"687","07RAG012515","07RAG012515_21",2021-09-22 21:30:00,0,27.6,0
"688","ZAK","ZAK_21",2021-07-28 16:30:00,0,31.5,0
"689","08ISS4294","08ISS4294_21",2021-09-21 17:15:00,0,25.7,0
"690","Miller_Cove","Miller_Cove_21",2021-09-14 16:30:00,1,17.1,0.0584795321637427
"691","09BLA0771","09BLA0771_21",2021-09-13 21:45:00,1,18.2,0.0549450549450549
"693","07CHR070059","07CHR070059_21",2021-09-23 16:45:00,0,21.8,0
"694","07TKL047047","07TKL047047_21",2021-09-29 16:00:00,0,8.3,0
"695","09DUW0225","09DUW0225_21",2021-07-28 19:30:00,0,21.6,0
"696","09DUW0091","09DUW0091_21",2021-07-28 16:15:00,0,25.6,0
"697","07PAT228627","07PAT228627_21",2021-08-17 16:45:00,2,37.7,0.0530503978779841
"698","07PAT187623","07PAT187623_21",2021-09-29 15:45:00,0,12.4,0
"699","08ISS3962","08ISS3962_21",2021-08-25 17:15:00,0,12.5,0
"700","07CHR234411","07CHR234411_21",2021-08-23 22:00:00,1,70.3,0.0142247510668563
"701","08EAS2191","08EAS2191_21",2021-08-04 21:30:00,0,12.7,0
"702","07CHR045515","07CHR045515_21",2021-08-23 17:45:00,0,43.8,0
"703","08WES1037","08WES1037_21",2021-09-28 21:40:00,0,13.3,0
"704","07LMS055075","07LMS055075_21",2021-07-21 16:15:00,1,57.7,0.0173310225303293
"705","07RAG002867","07RAG002867_21",2021-09-29 19:30:00,0,22.9,0
"706","08CED2518","08CED2518_21",2021-09-14 18:00:00,0,27.9,0
"707","07LNT163403","07LNT163403_21",2021-09-29 20:00:00,0,7,0
"709","08EAS1964","08EAS1964_21",2021-09-20 20:30:00,2,34,0.0588235294117647
"710","08EAS2446","08EAS2446_21",2021-07-21 22:00:00,0,24.7,0
"711","08LAK2827","08LAK2827_21",2021-08-05 20:30:00,0,14.7,0
"712","08LIT2603","08LIT2603_21",2021-09-16 20:30:00,0,6.3,0
"713","08LIT2781","08LIT2781_21",2021-09-16 18:00:00,0,9.6,0
"716","08EAS1536","08EAS1536_21",2021-09-20 16:00:00,2,16.2,0.123456790123457
"717","08WES1178","08WES1178_21",2021-07-14 19:30:00,3,32,0.09375
"718","08BEA3737","08BEA3737_21",2021-08-04 18:00:00,2,19,0.105263157894737
"719","08BEA3650","08BEA3650_21",2021-08-04 15:30:00,1,89,0.0112359550561798
"720","08CED5032","08CED5032_21",2021-07-13 20:45:00,0,30.1,0
"721","08CED5046","08CED5046_21",2021-07-12 20:45:00,0,15.7,0
"722","08SAM2855","08SAM2855_21",2021-07-19 18:45:00,0,16,0
"723","08ISS4730","08ISS4730_21",2021-07-26 17:00:00,1,37.5,0.0266666666666667
"724","07RAG043443","07RAG043443_21",2021-08-17 21:30:00,1,42.7,0.0234192037470726
"725","08EAS2540","08EAS2540_21",2021-07-21 19:45:00,0,15.3,0
"726","09LOW0325","09LOW0325_21",2021-10-04 22:15:00,1,21.3,0.0469483568075117
"727","08NOR1362","08NOR1362_21",2021-10-04 17:15:00,1,90,0.0111111111111111
"728","09BLA0768","09BLA0768_21",2021-10-07 17:15:00,1,19.3,0.0518134715025907
"729","08LIT2682","08LIT2682_21",2021-09-29 21:40:00,0,12.5,0
"730","09MID2426","09MID2426_21",2021-10-05 16:30:00,1,15.7,0.0636942675159236
"731","08ISS4735","08ISS4735_21",2021-07-26 20:30:00,1,31.5,0.0317460317460317
"732","08NOR2306","08NOR2306_21",2021-09-29 19:00:00,1,34.5,0.0289855072463768
"733","09COV1418","09COV1418_21",2021-10-05 19:15:00,0,9.6,0
"734","08NOR1750","08NOR1750_21",2021-09-29 16:20:00,1,46,0.0217391304347826
"735","09DEE2163","09DEE2163_21",2021-10-07 18:15:00,0,8.2,0
"736","09COV1165","09COV1165_21",2021-10-04 22:45:00,1,27.6,0.036231884057971
"737","09DEE2294","09DEE2294_21",2021-10-06 15:05:00,0,19.3,0
"738","09SOO1130","09SOO1130_21",2021-10-06 20:30:00,0,6,0
"739","09DEE2208","09DEE2208_21",2021-10-07 16:20:00,0,15.8,0
"740","09COV1756","09COV1756_21",2021-10-04 20:20:00,0,18.6,0
"741","09LOW0751","09LOW0751_21",2021-10-06 18:00:00,1,14.8,0.0675675675675676
"742","09SOO1209","09SOO1209_21",2021-10-07 14:30:00,0,11.8,0
"743","08BEA3312","08BEA3312_21",2021-07-19 21:00:00,0,30,0
"745","07LMS033235","07LMS033235_21",2021-08-05 16:00:00,2,69.3,0.0288600288600289
"746","08ISS4724","08ISS4724_21",2021-07-14 20:45:00,0,19.7,0
"749","08WES0622","08WES0622_21",2021-07-22 17:00:00,0,33.6,0
"750","08EAS2058","08EAS2058_21",2021-07-29 16:45:00,3,56,0.0535714285714286
"751","08WES0903","08WES0903_21",2021-08-04 17:30:00,1,37,0.027027027027027
"753","09MID1958","09MID1958_21",2021-08-05 16:45:00,0,35.2,0
"754","09MID1744","09MID1744_21",2021-08-05 20:15:00,0,43,0
"755","07STL184007","07STL184007_21",2021-08-12 17:30:00,1,47,0.0212765957446809
"756","08SAM0000","08SAM0000_21",2021-08-19 16:45:00,3,43,0.0697674418604651
"757","08WES0629","08WES0629_21",2021-08-19 21:00:00,0,41.5,0
"758","08ISS4573","08ISS4573_21",2021-08-26 17:00:00,0,40,0
"759","08LAK3699","08LAK3699_21",2021-08-26 20:00:00,1,42,0.0238095238095238
"760","08LIT2585","08LIT2585_21",2021-08-31 17:15:00,0,19,0
"761","08SAM2862","08SAM2862_21",2021-08-31 21:00:00,1,34,0.0294117647058824
"762","08BEA3914","08BEA3914_21",2021-09-02 17:00:00,0,24,0
"763","08BEA3826","08BEA3826_21",2021-09-02 20:30:00,1,34,0.0294117647058824
"764","08SAM3047","08SAM3047_21",2021-09-08 18:30:00,0,22,0
"765","08EVA3813","08EVA3813_21",2021-09-09 16:30:00,0,46,0
"767","08SAM3045","08SAM3045_21",2021-09-09 19:45:00,0,19,0
"768","VashShing","VashShin_21",2021-09-13 16:30:00,0,39,0
"769","28A","28A_21",2021-09-13 18:30:00,1,34,0.0294117647058824
"770","VashChris","VashChris_21",2021-09-13 21:00:00,0,38,0
"771","07LMS103591","07LMS103591_21",2021-09-16 16:30:00,2,34.5,0.0579710144927536
"772","07LMS026663","07LMS026663_21",2021-09-16 19:15:00,0,142,0
"773","07SFS011059","07SFS011059_21",2021-09-16 20:00:00,0,42,0
"774","08BEA3321","08BEA3321_21",2021-09-22 18:00:00,0,44,0
"775","08LAK3880","08LAK3880_21",2021-09-23 16:00:00,0,25,0
"777","09BLA0817","09BLA0817_21",2021-09-23 19:00:00,0,28,0
"778","09SOO1283","09SOO1283_21",2021-10-07 16:30:00,0,56,0
