"","SiteName","SampleName","SampleDate","WettedWidth","BankfulWidth","expr1"
"1","08ISS3877","08ISS3877_17",2017-07-19 10:15:00,35.4,76.1,0.465177398160315
"2","09MIL0390","09MIL0390_17",2017-07-20 02:00:00,8.405,12.5,0.6724
"3","08EAS2540","08EAS2540_17",2017-07-20 09:15:00,9.5,15.2,0.625
"4","08ISS3962","08ISS3962_17",2017-07-20 09:15:00,38.9,56.3666666666667,0.690124186871674
"5","09MIL0340","09MIL0340_17",2017-07-20 11:30:00,7.66666666666667,12.5,0.613333333333333
"6","08ISS4748","08ISS4748_17",2017-07-20 13:15:00,13,23.125,0.562162162162162
"7","08LAK3121","08LAK3121_17",2017-07-20 13:29:59,6.33333333333333,14.4666666666667,0.43778801843318
"8","08BEA3747","08BEA3747_17",2017-07-24 09:44:59,36.3333333333333,47,0.773049645390071
"9","08BEA3571","08BEA3571_17",2017-07-24 12:15:00,25,29,0.862068965517241
"10","08WES0622","08WES0622_17",2017-07-25 08:30:00,3,5.5,0.545454545454545
"11","08WES0905","08WES0905_17",2017-07-25 10:35:00,12.225,15.875,0.77007874015748
"12","08WES0903","08WES0903_17",2017-07-25 13:29:59,15.4333333333333,18.7666666666667,0.822380106571936
"13","09BLA0768","09BLA0768_17",2017-07-26 08:45:00,9.13333333333333,16.4666666666667,0.554655870445344
"14","09NEW2102","09NEW2102_17",2017-07-26 08:59:59,11.85,14.275,0.830122591943958
"15","08EVA3637","08EVA3637_17",2017-07-26 10:29:59,2.825,16.175,0.174652241112828
"16","09COV1756","09COV1756_17",2017-07-26 11:59:59,46.6,50.85,0.916420845624385
"17","09BLA0771","09BLA0771_17",2017-07-26 13:00:00,3.8,12.775,0.297455968688845
"18","09COV1862","09COV1862_17",2017-07-26 14:00:00,4.25,16.125,0.263565891472868
"19","08SAM2855","08SAM2855_17",2017-07-27 09:30:00,9.33333333333333,12.1666666666667,0.767123287671233
"20","08BEA3474","08BEA3474_17",2017-07-27 10:29:59,28.5,28.95,0.984455958549223
"21","08WES1178","08WES1178_17",2017-07-27 11:00:00,2.8,17,0.164705882352941
"22","08SAM3047","08SAM3047_17",2017-07-27 11:59:59,6.26666666666667,13.8333333333333,0.453012048192771
"23","08WES0629","08WES0629_17",2017-07-27 13:15:00,10.125,19.25,0.525974025974026
"24","09JEN1357","09JEN1357_17",2017-07-30 23:59:59,18.1,23.8,0.760504201680672
"25","08CED5046","08CED5046_17",2017-07-31 09:15:00,23.5,48.8333333333333,0.48122866894198
"26","08LIT2585","08LIT2585_17",2017-07-31 10:45:00,15.35,26.95,0.569573283858998
"27","09JEN1318","09JEN1318_17",2017-07-31 11:00:00,24.7,28.7,0.860627177700348
"28","08CED5032","08CED5032_17",2017-07-31 11:45:00,12,22.8333333333333,0.525547445255474
"29","08CED4975","08CED4975_17",2017-07-31 14:00:00,5.5,10.3333333333333,0.532258064516129
"30","08LIT2682","08LIT2682_17",2017-07-31 14:30:00,21.1,27.45,0.768670309653916
"31","08LAK2827","08LAK2827_17",2017-08-01 08:30:00,4.66666666666667,8.56666666666667,0.544747081712062
"32","08LIT2781","08LIT2781_17",2017-08-01 10:15:00,12.8333333333333,25.3666666666667,0.505913272010513
"33","08LAK3627","08LAK3627_17",2017-08-01 11:00:00,7.5,11,0.681818181818182
"34","09SOO1209","09SOO1209_17",2017-08-01 11:00:00,9.125,9.45,0.965608465608466
"35","08LIT2692","08LIT2692_17",2017-08-01 13:00:00,10.5,19.7,0.532994923857868
"36","08EAS1964","08EAS1964_17",2017-08-01 13:45:00,20.075,29.35,0.683986371379898
"37","09SOO1130","09SOO1130_17",2017-08-02 00:15:00,51.2666666666667,65.3,0.785094435936702
"38","08ISS4573","08ISS4573_17",2017-08-02 08:59:59,9.55,20.95,0.455847255369928
"39","09SOO1283","09SOO1283_17",2017-08-02 09:15:00,21.1,25.3333333333333,0.832894736842105
"40","09SOO1134","09SOO1134_17",2017-08-02 09:30:00,38.75,46,0.842391304347826
"41","09SOO1022","09SOO1022_17",2017-08-02 11:14:59,9.875,15,0.658333333333333
"42","08ISS4884","08ISS4884_17",2017-08-02 13:00:00,5,14.8333333333333,0.337078651685393
"43","08EAS2631","08EAS2631_17",2017-08-03 08:45:00,31.5,41.8,0.753588516746412
"44","VashShing","VashShing_17",2017-08-03 08:59:59,10.1,30.1333333333333,0.335176991150442
"45","09COV1864","09COV1864_17",2017-08-03 09:15:00,6.855,15.25,0.449508196721311
"46","08EAS2058","08EAS2058_17",2017-08-03 11:00:00,21.1,34.5,0.611594202898551
"47","28A","28A_17",2017-08-03 11:00:00,12.71,14.75,0.861694915254237
"48","09COV1165","09COV1165_17",2017-08-03 12:30:00,21.75,31.5,0.69047619047619
"49","07RAG002867","07RAG002867_17",2017-08-06 23:59:59,16.475,28.75,0.57304347826087
"50","07RAG043443","07RAG043443_17",2017-08-06 23:59:59,40.925,63.1,0.648573692551505
"51","07RAG004615","07RAG004615_17",2017-08-07 08:59:59,33.5,61,0.549180327868853
"52","09MID1958","09MID1958_17",2017-08-07 13:29:59,20,31,0.645161290322581
"53","07PAT001415","07PAT001415_17",2017-08-07 13:45:00,7.7,20,0.385
"54","07HAR070087","07HAR070087_17",2017-08-08 10:29:59,10.4666666666667,12.3333333333333,0.848648648648649
"55","08NOR1370","08NOR1370_17",2017-08-08 11:30:00,22.75,31.25,0.728
"56","09SOO0943","09SOO0943_17",2017-08-08 11:59:59,22.5,40,0.5625
"57","08NOR1362","08NOR1362_17",2017-08-08 12:44:59,19.3333333333333,29,0.666666666666667
"58","07TKL072439","07TKL072439_17",2017-08-09 09:15:00,6.46666666666667,16.3666666666667,0.395112016293279
"59","08ISS4730","08ISS4730_17",2017-08-09 10:00:00,15.8666666666667,28,0.566666666666667
"60","08CED4192","08CED4192_17",2017-08-10 09:44:59,13.5,22.3333333333333,0.604477611940299
"61","08NOR1750","08NOR1750_17",2017-08-10 10:45:00,10.6333333333333,25.6333333333333,0.4148244473342
"62","08CED2898","08CED2898_17",2017-08-10 12:15:00,3.9,13.7,0.284671532846715
"63","08NOR1756","08NOR1756_17",2017-08-10 12:44:59,12.175,35.375,0.344169611307421
"64","07STL080295","07STL080295_17",2017-08-10 14:00:00,85,106,0.80188679245283
"65","08CED2518","08CED2518_17",2017-08-10 14:00:00,9,17,0.529411764705882
"66","08EAS2546","08EAS2546_17",2017-08-14 10:00:00,3,7,0.428571428571429
"67","07LMS026663","07LMS026663_17",2017-08-14 10:15:00,137.7,222,0.62027027027027
"68","08EAS2272","08EAS2272_17",2017-08-14 12:15:00,11.5,16.75,0.686567164179104
"69","07TKL047047","07TKL047047_17",2017-08-14 13:15:00,23,35,0.657142857142857
"70","07LMS033235","07LMS033235_17",2017-08-14 14:14:59,19,32,0.59375
"71","07PAT231079","07PAT231079_17",2017-08-15 08:59:59,8.5,14.25,0.596491228070175
"72","08ISS3958","08ISS3958_17",2017-08-15 09:44:59,3.3,13,0.253846153846154
"73","08LAK3699","08LAK3699_17",2017-08-15 11:59:59,15.65,22.75,0.687912087912088
"74","08EAS2446","08EAS2446_17",2017-08-15 12:44:59,12.7,32.475,0.391070053887606
"75","08LAK3879","08LAK3879_17",2017-08-15 13:45:00,11.3,11.75,0.961702127659575
"76","09DEE2163","09DEE2163_17",2017-08-16 09:30:00,12,14.42,0.832177531206657
"77","09MID2426","09MID2426_17",2017-08-16 09:30:00,5.4,15.575,0.346709470304976
"78","09MID1817","09MID1817_17",2017-08-16 11:59:59,12.2333333333333,23.3333333333333,0.524285714285714
"79","09DEE2294","09DEE2294_17",2017-08-16 12:44:59,20.5,33,0.621212121212121
"80","07LNT130827","07LNT130827_17",2017-08-16 13:00:00,63.5,281.25,0.225777777777778
"81","09LOW0751","09LOW0751_17",2017-08-17 01:15:00,5.5,16.75,0.328358208955224
"82","07HAR025863","07HAR025863_17",2017-08-17 09:30:00,8.03333333333333,11.0333333333333,0.72809667673716
"83","09COV1418","09COV1418_17",2017-08-17 10:15:00,25.25,41,0.615853658536585
"84","09DEE2211","09DEE2211_17",2017-08-18 09:30:00,7.56666666666667,15.5666666666667,0.486081370449679
"85","08NOR2306","08NOR2306_17",2017-08-20 23:59:59,23,37.25,0.61744966442953
"86","08NOR2115","08NOR2115_17",2017-08-21 08:14:59,30,34.15,0.878477306002928
"87","08EAS1536","08EAS1536_17",2017-08-21 08:59:59,6.25,12.25,0.510204081632653
"88","08EAS2191","08EAS2191_17",2017-08-21 11:45:00,6.55,8.5,0.770588235294118
"89","08BEA3321","08BEA3321_17",2017-08-21 13:29:59,18,21,0.857142857142857
"90","08SAM0000","08SAM0000_17",2017-08-21 13:45:00,4.25,11.5,0.369565217391304
"91","07RAG022147","07RAG022147_17",2017-08-22 08:59:59,10.4,15.675,0.66347687400319
"92","07CHR070059","07CHR070059_17",2017-08-22 09:30:00,12,19.5,0.615384615384615
"93","08BEA3826","08BEA3826_17",2017-08-22 09:30:00,5.5,12.25,0.448979591836735
"94","07RAG042787","07RAG042787_17",2017-08-22 11:14:59,15.3333333333333,75,0.204444444444444
"95","07CHR045515","07CHR045515_17",2017-08-22 11:59:59,19.875,38.9,0.510925449871465
"96","08BEA3914","08BEA3914_17",2017-08-22 13:00:00,13.825,15.725,0.879173290937997
"97","07STL184007","07STL184007_17",2017-08-23 08:59:59,109.8,123.3,0.89051094890511
"98","09BLA0675","09BLA0675_17",2017-08-23 09:15:00,7.4,49,0.151020408163265
"99","08BEA3312","08BEA3312_17",2017-08-23 10:29:59,5.5,17.4333333333333,0.315487571701721
"100","07SFS011059","07SFS011059_17",2017-08-23 11:14:59,64.8,107.7,0.6016713091922
"101","09BLA0716","09BLA0716_17",2017-08-23 11:14:59,9.5,12.5,0.76
"102","08EVA3813","08EVA3813_17",2017-08-23 11:45:00,6.03333333333333,9,0.67037037037037
"103","08SAM3045","08SAM3045_17",2017-08-23 13:00:00,6.5,16.5,0.393939393939394
"104","07SFS041891","07SFS041891_17",2017-08-23 13:29:59,84,97.2,0.864197530864197
"105","09BLA0756","09BLA0756_17",2017-08-23 13:45:00,24,39.55,0.606826801517067
"106","08SAM2862","08SAM2862_17",2017-08-24 09:15:00,7.7,20.075,0.383561643835616
"107","07SFS066611","07SFS066611_17",2017-08-24 10:15:00,8,10.5,0.761904761904762
"108","09MID1537","09MID1537_17",2017-08-24 11:30:00,1.6,3.7,0.432432432432432
"109","07SFS011475","07SFS011475_17",2017-08-24 11:45:00,86.1,246,0.35
"110","08SAM2865","08SAM2865_17",2017-08-24 11:59:59,6,15,0.4
"111","09MID1374","09MID1374_17",2017-08-24 13:29:59,8.275,13.425,0.616387337057728
"112","07RAG018227","07RAG018227_17",2017-08-24 14:30:00,22.2333333333333,35.6666666666667,0.623364485981308
"113","MA01","MA01_17",2017-08-28 00:44:59,5.5,NA,NA
"114","08CED2433","08CED2433_17",2017-08-28 08:30:00,6.96666666666667,11.0666666666667,0.629518072289157
"115","09LOW0753","09LOW0753_17",2017-08-28 09:30:00,5,12,0.416666666666667
"116","08LAK3540","08LAK3540_17",2017-08-28 11:45:00,4.7,12.725,0.369351669941061
"117","09LOW0325","09LOW0325_17",2017-08-28 12:15:00,7.175,13.475,0.532467532467532
"118","09BLA0817","09BLA0817_17",2017-08-28 14:30:00,9.625,17.625,0.546099290780142
"119","09BLA0772","09BLA0772_17",2017-08-29 09:15:00,3.33333333333333,15.1333333333333,0.220264317180617
"120","09DEE2208","09DEE2208_17",2017-08-29 09:15:00,18.5,44.875,0.412256267409471
"121","TAMA_MOUTH","TAMA_MOUTH_17",2017-08-29 11:30:00,5,NA,NA
"122","09NEW2076","09NEW2076_17",2017-08-29 11:59:59,6.36666666666667,13,0.48974358974359
"123","NFCC","NFCC_17",2017-08-30 08:59:59,11.5533333333333,NA,NA
"124","BSE_21_GolfCrs","BSE_21_GolfCrs_17",2017-08-30 09:15:00,31.8,34.3,0.927113702623907
"125","BSE_1_MudMtnRd","BSE_1_MudMtnRd_17",2017-08-30 11:14:59,27.3333333333333,47.1666666666667,0.579505300353357
"126","TNMA7673","TNMA7673_17",2017-08-30 12:15:00,9,NA,NA
"127","TSMA6612","TSMA6612_17",2017-08-30 13:29:59,10.415,NA,NA
"128","BSE_8_268hAveSE","BSE_8_268hAveSE_17",2017-08-30 13:45:00,24,52,0.461538461538462
"129","09DUW0225","09DUW0225_17",2017-08-31 13:00:00,2.83333333333333,10.1333333333333,0.279605263157895
"130","09DUW0277","09DUW0277_17",2017-08-31 14:30:00,4.7,6.9,0.681159420289855
"131","07LMS093027","07LMS093027_17",2017-09-05 09:15:00,200,225,0.888888888888889
"132","PI01","PI01_17",2017-09-05 09:15:00,10.2333333333333,NA,NA
"133","PIMA6462","PIMA6462_17",2017-09-05 10:29:59,9.2,NA,NA
"134","09DUW0091","09DUW0091_17",2017-09-05 14:14:59,7.7,11.9666666666667,0.643454038997215
"135","KNKT-D","KNKT-D_17",2017-09-07 01:29:59,11.4333333333333,NA,NA
"136","09NEW1657","09NEW1657_17",2017-09-07 09:30:00,36.6666666666667,46,0.797101449275362
"137","08EVA3640","08EVA3640_17",2017-09-07 10:00:00,7.525,17.725,0.424541607898449
"138","08EVA3642","08EVA3642_17",2017-09-07 11:59:59,4.83333333333333,11.2666666666667,0.428994082840237
"139","VENE","VENE_17",2017-09-07 14:14:59,4.2,NA,NA
"140","KNKT-U","KNKT-U_17",2017-09-07 14:59:59,11.0333333333333,NA,NA
"141","PIVE1895","PIVE1895_17",2017-09-07 15:30:00,5.33333333333333,NA,NA
"142","SFCT","SFCT_17",2017-09-08 10:29:59,11,NA,NA
"143","NFCT","NFCT_17",2017-09-08 11:00:00,9.5,NA,NA
"144","07GRN077319","07GRN077319_17",2017-09-08 13:15:00,24.65,38.1,0.646981627296588
"145","07GRN022903","07GRN022903_17",2017-09-11 11:30:00,12.05,27,0.446296296296296
"146","07SFS009443","07SFS009443_17",2017-09-11 13:45:00,91,98,0.928571428571429
"147","09MID1744","09MID1744_17",2017-09-12 09:30:00,13.875,17.6,0.788352272727273
"148","07LMS103591","07LMS103591_17",2017-09-12 10:00:00,13.7,22.25,0.615730337078652
"149","09BLA0722","09BLA0722_17",2017-09-12 10:29:59,7.875,16,0.4921875
"150","07LMS213875","07LMS213875_17",2017-09-12 11:45:00,210,222,0.945945945945946
"151","08WES1579","08WES1579_17",2017-09-12 12:44:59,2.75,18.875,0.145695364238411
"152","07LMS055075","07LMS055075_17",2017-09-12 13:00:00,7.5,12.625,0.594059405940594
"153","Miller_Cove","Miller_Cove_17",2017-09-13 09:15:00,14.4,22.1,0.65158371040724
"154","WalkerPreserve","WalkerPreserve_17",2017-09-13 11:30:00,9,15,0.6
"155","Miller_SWSSD","Miller_SWSSD_17",2017-09-13 13:00:00,11.175,23.125,0.483243243243243
"156","08SAM1914","08SAM1914_17",2017-09-14 08:45:00,5.16666666666667,11.4666666666667,0.450581395348837
"157","PIMA7729","PIMA7729_17",2017-09-14 11:30:00,9.33333333333333,NA,NA
"158","PI02","PI02_17",2017-09-14 12:44:59,4.66666666666667,NA,NA
"159","KNKC","KNKC_17",2017-09-14 14:30:00,16,NA,NA
"160","08WES1037","08WES1037_17",2017-09-17 23:59:59,6,6.75,0.888888888888889
"161","08BEA3737","08BEA3737_17",2017-09-18 00:44:59,4.4,14.375,0.306086956521739
"162","08SAM2674","08SAM2674_17",2017-09-18 09:15:00,3.6,15,0.24
"163","TMMA3168","TMMA3168_17",2017-09-18 09:15:00,16,NA,NA
"164","08WES1340","08WES1340_17",2017-09-18 09:44:59,8,22.5,0.355555555555556
"165","TMMA1199","TMMA1199_17",2017-09-18 10:45:00,12.8,NA,NA
"166","08BEA3650","08BEA3650_17",2017-09-18 11:00:00,30,32.5,0.923076923076923
"167","SFCC","SFCC_17",2017-09-20 13:00:00,14,NA,NA
"168","VashChris","VashChris_17",2017-09-20 14:59:59,5,11.75,0.425531914893617
"169","TSMA7774","TSMA7774_17",2017-09-20 22:29:59,12.5,NA,NA
"170","08LIT2603","08LIT2603_17",2017-09-20 23:59:59,6.56666666666667,10.1666666666667,0.645901639344262
"171","08CED2711","08CED2711_17",2017-09-21 10:15:00,6.26666666666667,16.6666666666667,0.376
"172","08LIT2602","08LIT2602_17",2017-09-21 11:14:59,11,13,0.846153846153846
"173","08LIT2685","08LIT2685_17",2017-09-24 23:59:59,15.5,21.5,0.720930232558139
"174","08LAK3628","08LAK3628_17",2017-09-25 09:15:00,5.475,10.25,0.534146341463415
"175","07LNT062039","07LNT062039_17",2017-09-27 10:29:59,57.8333333333333,88.5666666666667,0.652992096349266
"176","07LNT075179","07LNT075179_17",2017-09-27 13:15:00,14.75,48.5,0.304123711340206
"177","TNMA0609","TNMA0609_17",2017-09-28 12:15:00,10.5,NA,NA
"178","95T","95T_17",2017-09-28 13:15:00,26.5,NA,NA
"179","08LAK3880","08LAK3880_17",2017-09-28 14:00:00,8.7,17,0.511764705882353
"180","TNMA6462","TNMA6462_17",2017-10-05 10:00:00,13,NA,NA
"181","MOHL","MOHL_17",2017-10-05 11:59:59,2.45,NA,NA
"182","09NEW2128","09NEW2128_17",2017-10-07 12:15:00,8.43333333333333,14.8333333333333,0.568539325842697
"183","08ISS4294","08ISS4294_17",2017-10-10 09:44:59,12.1,27.25,0.444036697247706
"184","08ISS4724","08ISS4724_17",2017-10-26 14:14:59,18.875,33.75,0.559259259259259
"185","08ISS3877","08ISS3877_18",2018-07-25 16:30:00,45.8109625,67.1374625,0.682345754428833
"186","08LAK2827","08LAK2827_18",2018-07-26 17:00:00,4.19968,4.33092,0.96969696969697
"187","08ISS4735","08ISS4735_18",2018-07-27 16:15:00,4.3391225,10.089075,0.430081300813008
"188","09BLA0772","09BLA0772_18",2018-07-30 16:18:00,4.9215,8.415765,0.584795321637427
"189","09BLA0771","09BLA0771_18",2018-07-30 18:37:00,7.05415,9.925025,0.710743801652893
"190","08EAS2540","08EAS2540_18",2018-07-31 15:30:00,3.494265,6.72605,0.519512195121951
"191","08CED2518","08CED2518_18",2018-08-01 16:00:00,8.284525,10.745275,0.770992366412214
"192","08ISS4573","08ISS4573_18",2018-08-01 16:00:00,5.9140025,8.39936,0.7041015625
"193","08LAK3879","08LAK3879_18",2018-08-01 16:40:00,7.7677675,14.518425,0.535028248587571
"194","08ISS4748","08ISS4748_18",2018-08-01 18:26:00,10.8273,17.55335,0.616822429906542
"195","08CED2711","08CED2711_18",2018-08-01 18:45:00,6.13547,9.8019875,0.625941422594142
"196","08ISS4294","08ISS4294_18",2018-08-01 20:24:00,9.9004175,16.47062,0.60109561752988
"197","08CED2898","08CED2898_18",2018-08-01 21:30:00,2.7478375,5.74175,0.478571428571429
"198","08ISS3962","08ISS3962_18",2018-08-01 21:43:00,52.7994925,53.7837925,0.981698947689492
"199","08WES1178","08WES1178_18",2018-08-02 16:43:00,4.1422625,4.937905,0.838870431893688
"200","08WES0622","08WES0622_18",2018-08-02 16:50:00,5.15117,13.91144,0.370283018867925
"201","08WES0629","08WES0629_18",2018-08-02 19:30:00,24.361425,41.258575,0.590457256461233
"202","08WES0905","08WES0905_18",2018-08-02 20:52:00,10.92573,12.6072425,0.866623292127521
"203","07LMS033235","07LMS033235_18",2018-08-06 18:45:00,23.705225,36.337075,0.652370203160271
"204","08BEA3826","08BEA3826_18",2018-08-06 18:45:00,4.183275,15.4124975,0.271420968600319
"205","07LMS213875","07LMS213875_18",2018-08-06 20:56:00,217.448275,230.16215,0.944761225944405
"206","08BEA3914","08BEA3914_18",2018-08-06 21:30:00,7.8744,17.22525,0.457142857142857
"207","08LAK3540","08LAK3540_18",2018-08-07 16:30:00,5.2496,8.8587,0.592592592592593
"208","07HAR070087","07HAR070087_18",2018-08-07 16:45:00,5.97142,8.481385,0.704061895551257
"209","09BLA0722","09BLA0722_18",2018-08-07 17:39:00,6.2339,10.46639,0.595611285266458
"210","07STL080295","07STL080295_18",2018-08-07 19:55:00,80.630575,94.738875,0.851082251082251
"211","09BLA0675","09BLA0675_18",2018-08-07 20:20:00,11.893625,20.588275,0.577689243027888
"212","07RAG043443","07RAG043443_18",2018-08-08 16:30:00,47.2464,68.40885,0.690647482014389
"213","08SAM3045","08SAM3045_18",2018-08-08 17:00:00,6.808075,9.760975,0.697478991596639
"214","09BLA0817","09BLA0817_18",2018-08-08 17:00:00,5.84018,13.28805,0.439506172839506
"215","08SAM2862","08SAM2862_18",2018-08-08 19:00:00,5.74175,9.1868,0.625
"216","08LAK3699","08LAK3699_18",2018-08-08 19:35:00,19.0298,20.916375,0.909803921568627
"217","09BLA0716","09BLA0716_18",2018-08-09 16:09:00,8.1450825,9.531305,0.854561101549054
"218","BSE_21_GolfCrs","BSE_21_GolfCrs_18",2018-08-09 17:00:00,29.2009,27.314325,1.06906906906907
"219","09LOW0753","09LOW0753_18",2018-08-09 19:32:00,4.16687,6.283115,0.663185378590078
"220","08EVA3637","08EVA3637_18",2018-08-13 15:32:00,2.247485,3.6501125,0.615730337078652
"221","07LMS026663","07LMS026663_18",2018-08-13 15:38:00,157.98015,243.4502,0.648921832884097
"222","07LMS093027","07LMS093027_18",2018-08-13 19:36:00,187.50915,211.9526,0.884674922600619
"223","08EAS2631","08EAS2631_18",2018-08-14 15:21:00,19.29228,24.558285,0.785571142284569
"224","08EAS2446","08EAS2446_18",2018-08-14 15:50:00,12.8369125,29.3239375,0.437762237762238
"225","08EAS1964","08EAS1964_18",2018-08-14 18:27:00,20.752325,26.08395,0.79559748427673
"226","07GRN077319","07GRN077319_18",2018-08-14 18:30:00,16.158925,33.056075,0.488833746898263
"227","08LAK3121","08LAK3121_18",2018-08-14 20:00:00,13.2470375,15.010575,0.882513661202186
"228","08EAS2058","08EAS2058_18",2018-08-14 21:00:00,20.588275,27.2323,0.756024096385542
"229","08WES0903","08WES0903_18",2018-08-14 21:20:00,15.830825,22.80295,0.694244604316547
"230","09DUW0225","09DUW0225_18",2018-08-15 15:56:00,4.7492475,8.743865,0.543151969981238
"231","09NEW2102","09NEW2102_18",2018-08-15 16:45:00,8.9817375,13.6735675,0.656868626274745
"232","09LOW0325","09LOW0325_18",2018-08-15 18:10:00,5.6843325,8.4075625,0.67609756097561
"233","09BLA0768","09BLA0768_18",2018-08-15 21:05:00,7.7513625,10.6222375,0.72972972972973
"234","09SOO1134","09SOO1134_18",2018-08-16 17:00:00,35.40199,40.3973125,0.876345177664975
"235","08SAM0000","08SAM0000_18",2018-08-17 16:12:00,51.265625,28.9794325,1.76903481460515
"236","09DUW0277","09DUW0277_18",2018-08-20 20:00:00,4.3555275,6.8490875,0.635928143712575
"237","09SOO1209","09SOO1209_18",2018-08-21 17:00:00,9.67895,10.1711,0.951612903225806
"238","09SOO1283","09SOO1283_18",2018-08-21 18:20:00,12.63185,15.830825,0.797927461139896
"239","09NEW2151","09NEW2151_18",2018-08-23 16:00:00,12.8369125,14.944955,0.858946212952799
"240","09DEE2211","09DEE2211_18",2018-08-23 16:40:00,7.070555,10.33515,0.684126984126984
"241","09SOO1130","09SOO1130_18",2018-08-23 17:10:00,24.77155,32.235825,0.768447837150127
"242","09MID2426","09MID2426_18",2018-08-23 17:40:00,2.608395,7.57911,0.344155844155844
"243","09NEW1657","09NEW1657_18",2018-08-23 18:50:00,25.181675,28.298625,0.889855072463768
"244","09JEN1357","09JEN1357_18",2018-08-23 19:00:00,16.405,18.0455,0.909090909090909
"245","09MID1817","09MID1817_18",2018-08-23 20:20:00,7.8497925,9.97424,0.787006578947368
"246","09JEN1318","09JEN1318_18",2018-08-23 20:30:00,20.0141,25.017625,0.8
"247","BSE_1_MudMtnRd","BSE_1_MudMtnRd_18",2018-08-23 21:45:00,18.53765,20.3422,0.911290322580645
"248","09MID1374","09MID1374_18",2018-08-23 22:00:00,7.595515,10.3433525,0.734337827121332
"249","09MIL0340","09MIL0340_18",2018-08-24 15:15:00,9.35085,14.7645,0.633333333333333
"250","09MIL0390","09MIL0390_18",2018-08-24 17:40:00,8.776675,10.1711,0.862903225806451
"251","08ISS3958","08ISS3958_18",2018-08-27 15:15:00,3.11695,5.430055,0.574018126888218
"252","08ISS4730","08ISS4730_18",2018-08-27 17:15:00,28.8728,32.399875,0.891139240506329
"253","08SAM1914","08SAM1914_18",2018-08-27 18:30:00,4.9625125,7.71035,0.643617021276596
"254","07RAG018227","07RAG018227_18",2018-08-27 20:30:00,23.19667,35.090295,0.661056568489949
"255","08SAM3047","08SAM3047_18",2018-08-27 21:00:00,8.69465,8.8587,0.981481481481481
"256","08SAM2865","08SAM2865_18",2018-08-28 15:45:00,6.479975,11.073375,0.585185185185185
"257","07HAR025863","07HAR025863_18",2018-08-28 17:15:00,7.956425,9.925025,0.801652892561983
"258","08BEA3312","08BEA3312_18",2018-08-28 20:10:00,5.331625,6.562,0.8125
"259","08WES1340","08WES1340_18",2018-08-28 21:00:00,7.8990075,15.9374575,0.495625321667524
"260","08CED2433","08CED2433_18",2018-08-29 15:47:00,4.8640825,6.2749125,0.77516339869281
"261","08ISS4884","08ISS4884_18",2018-08-29 16:30:00,10.3925675,11.2620325,0.922796795338674
"262","28A","28A_18",2018-08-29 17:20:00,12.385775,16.56905,0.747524752475248
"263","07SFS066611","07SFS066611_18",2018-08-29 17:35:00,5.4710675,9.2934325,0.588702559576346
"264","09BLA0756","09BLA0756_18",2018-08-29 19:00:00,17.143225,32.64595,0.525125628140704
"265","VashShing","VashShin_18",2018-08-29 19:19:00,14.27235,21.900675,0.651685393258427
"266","07PAT228627","07PAT228627_18",2018-08-29 19:50:00,10.00705,20.260175,0.493927125506073
"267","07LMS055075","07LMS055075_18",2018-08-29 20:51:00,7.956425,36.008975,0.220956719817768
"268","08EVA3642","08EVA3642_18",2018-08-30 15:13:00,5.823775,10.089075,0.577235772357723
"269","Miller_Cove","Miller_Cove_18",2018-08-30 16:00:00,10.1957075,13.9524525,0.730746619635509
"270","08CED4192","08CED4192_18",2018-08-30 16:40:00,21.244475,26.822175,0.792048929663609
"271","08EVA3640","08EVA3640_18",2018-08-30 17:05:00,7.300225,12.4678,0.585526315789474
"272","Miller_SWSSD","Miller_SWSSD_18",2018-08-30 18:00:00,13.763795,17.011985,0.809064609450338
"273","08EVA3813","08EVA3813_18",2018-08-30 20:40:00,6.4389625,8.448575,0.762135922330097
"274","WalkerPreserve","WalkerPreserve_18",2018-08-30 21:00:00,9.1457875,10.8683125,0.841509433962264
"275","08CED5032","08CED5032_18",2018-08-30 21:36:00,9.071965,19.39071,0.467851099830795
"276","08EAS2272","08EAS2272_18",2018-08-31 19:50:00,13.370075,14.27235,0.936781609195402
"277","07PAT231079","07PAT231079_18",2018-09-05 15:45:00,5.2085875,7.9154125,0.658031088082902
"278","09DEE2208","09DEE2208_18",2018-09-06 16:10:00,19.65319,26.248,0.74875
"279","07GRN022903","07GRN022903_18",2018-09-06 16:38:00,16.3639875,29.2009,0.560393258426966
"280","09MID1537","09MID1537_18",2018-09-06 18:50:00,1.919385,5.298815,0.362229102167183
"281","07PAT187623","07PAT187623_18",2018-09-06 19:08:00,13.862225,14.3133625,0.968481375358166
"282","07RAG004615","07RAG004615_18",2018-09-06 20:52:00,45.031725,64.225575,0.701149425287356
"283","08SAM2855","08SAM2855_18",2018-09-10 16:00:00,8.054855,14.1083,0.57093023255814
"284","08LIT2585","08LIT2585_18",2018-09-10 17:50:00,17.88145,23.6642125,0.755632582322357
"285","08LIT2682","08LIT2682_18",2018-09-10 20:45:00,16.70029,34.138805,0.48918789043729
"286","09COV1756","09COV1756_18",2018-09-11 18:45:00,33.712275,52.742075,0.639191290824261
"287","07RAG042787","07RAG042787_18",2018-09-12 16:50:00,20.6703,40.799235,0.506634499396864
"288","07SFS011059","07SFS011059_18",2018-09-12 20:45:00,61.84685,94.00065,0.657940663176265
"289","08ISS4724","08ISS4724_18",2018-09-12 21:00:00,16.2491525,19.3661025,0.839051249470563
"290","08NOR1370","08NOR1370_18",2018-09-13 15:19:00,27.1420725,36.6733775,0.740102885260568
"291","08NOR1362","08NOR1362_18",2018-09-13 17:50:00,25.5918,30.2262125,0.846675712347354
"292","08NOR1750","08NOR1750_18",2018-09-13 20:15:00,15.05979,19.0051925,0.792403970651705
"293","08NOR2306","08NOR2306_18",2018-09-13 21:06:00,22.9752025,27.839285,0.825279905715969
"294","08LIT2781","08LIT2781_18",2018-09-17 15:30:00,19.0298,20.3422,0.935483870967742
"295","08CED5046","08CED5046_18",2018-09-17 16:32:00,16.8561375,19.768025,0.852697095435685
"296","08EAS1536","08EAS1536_18",2018-09-17 21:00:00,7.34944,9.41647,0.780487804878049
"297","07TKL072439","07TKL072439_18",2018-09-17 21:22:00,4.937905,9.1129775,0.541854185418542
"298","07SFS009443","07SFS009443_18",2018-09-18 17:00:00,84.9779,99.988475,0.849876948318294
"299","07SFS041891","07SFS041891_18",2018-09-18 17:23:00,84.9779,96.215325,0.883205456095482
"300","07SFS011475","07SFS011475_18",2018-09-18 19:30:00,104.909975,220.1551,0.476527570789866
"301","07LMS103591","07LMS103591_18",2018-09-18 21:15:00,17.3893,20.3422,0.854838709677419
"302","09DUW0091","09DUW0091_18",2018-09-19 15:40:00,4.0766425,6.348735,0.642118863049096
"303","08BEA3737","08BEA3737_18",2018-09-19 16:30:00,4.42935,9.760975,0.453781512605042
"304","07LST069191","07LST069191_18",2018-09-19 17:11:00,6.0288375,12.746685,0.472972972972973
"305","08BEA3650","08BEA3650_18",2018-09-19 17:55:00,22.80295,23.213075,0.982332155477032
"306","08BEA3321","08BEA3321_18",2018-09-19 19:56:00,15.994875,16.322975,0.979899497487437
"307","07LNT163403","07LNT163403_18",2018-09-19 20:48:00,12.713875,15.338675,0.828877005347594
"308","08WES1037","08WES1037_18",2018-09-19 21:30:00,5.331625,6.26671,0.850785340314136
"309","09COV1862","09COV1862_18",2018-09-20 07:00:00,4.6344125,12.7959,0.362179487179487
"310","07LNT062039","07LNT062039_18",2018-09-20 17:30:00,61.6828,82.599175,0.746772591857001
"311","09COV1864","09COV1864_18",2018-09-20 19:18:00,4.7492475,8.8587,0.536111111111111
"312","07LNT130827","07LNT130827_18",2018-09-20 21:30:00,72.428075,92.5242,0.782801418439716
"313","08SAM2674","08SAM2674_18",2018-09-21 16:45:00,3.2399875,7.8744,0.411458333333333
"314","08EAS2191","08EAS2191_18",2018-09-24 15:35:00,7.5052875,8.612625,0.871428571428572
"315","07PAT001415","07PAT001415_18",2018-09-24 16:21:00,7.05415,11.97565,0.589041095890411
"316","08EAS2546","08EAS2546_18",2018-09-24 17:40:00,3.559885,4.6016025,0.773618538324421
"317","07PAT166087","07PAT166087_18",2018-09-24 17:50:00,12.057675,14.4364,0.835227272727273
"318","09SOO1022","09SOO1022_18",2018-09-24 20:29:00,6.151875,14.518425,0.423728813559322
"319","08LAK3627","08LAK3627_18",2018-09-25 16:15:00,6.381545,7.4232625,0.859668508287293
"320","07CHR070059","07CHR070059_18",2018-09-25 17:12:00,8.284525,14.682475,0.564245810055866
"321","08LAK3628","08LAK3628_18",2018-09-25 17:50:00,5.1757775,7.3740475,0.701890989988877
"322","07CHR234411","07CHR234411_18",2018-09-25 21:15:00,24.6075,32.563925,0.755667506297229
"323","09SOO0943","09SOO0943_18",2018-09-25 21:30:00,36.993275,37.0342875,0.998892580287929
"324","07STL184007","07STL184007_18",2018-09-26 16:30:00,117.95195,127.959,0.921794871794872
"325","07CHR045515","07CHR045515_18",2018-09-26 19:45:00,24.689525,35.59885,0.693548387096774
"326","VashChris","VashChris_18",2018-09-26 21:50:00,6.512785,8.3255375,0.782266009852217
"327","09NEW2128","09NEW2128_18",2018-09-27 15:55:00,8.8176875,15.830825,0.55699481865285
"328","08BEA3747","08BEA3747_18",2018-09-27 16:24:00,26.165975,59.7142,0.438186813186813
"329","09COV1418","09COV1418_18",2018-09-27 18:30:00,16.53624,37.2967675,0.443369254453486
"330","07LNT075179","07LNT075179_18",2018-09-28 18:30:00,17.963475,36.829225,0.487750556792873
"331","07RAG022147","07RAG022147_18",2018-10-01 16:30:00,7.38225,18.53765,0.398230088495575
"332","07RAG002867","07RAG002867_18",2018-10-01 20:15:00,9.170395,14.518425,0.631638418079096
"333","08LIT2685","08LIT2685_18",2018-10-02 16:00:00,20.5144525,21.4167275,0.95787054768288
"334","08NOR2115","08NOR2115_18",2018-10-02 18:05:00,26.0757475,34.4258925,0.757445794615201
"335","08WES1490","08WES1490_18",2018-10-02 18:20:00,5.495675,10.00705,0.549180327868852
"336","08WES1579","08WES1579_18",2018-10-02 20:30:00,73.6502475,5.6187125,13.1080291970803
"337","BSE_8_268hAveSE","BSE_8_268hAveSE_18",2018-10-03 15:34:00,18.947775,22.064725,0.858736059479554
"338","09LOW0751","09LOW0751_18",2018-10-04 15:15:00,5.2906125,10.417175,0.507874015748031
"339","08LAK3880","08LAK3880_18",2018-10-04 18:40:00,5.2906125,9.8840125,0.535269709543568
"340","09MID1744","09MID1744_18",2018-10-05 19:00:00,15.502725,20.2355675,0.766112687474666
"341","07TKL047047","07TKL047047_18",2018-10-08 16:40:00,22.5158625,27.478375,0.819402985074627
"342","08BEA3312","08BEA3312_19",2019-06-16 16:13:00,7.792375,8.03845,0.969387755102041
"343","08ISS3877","08ISS3877_19",2019-07-15 16:00:00,42.3249,69.39315,0.609929078014185
"344","08BEA3737","08BEA3737_19",2019-07-16 19:30:00,6.2339,9.268825,0.672566371681416
"345","08BEA3474","08BEA3474_19",2019-07-17 15:11:00,24.44345,28.38065,0.861271676300578
"346","08LIT2682","08LIT2682_19",2019-07-17 18:30:00,20.588275,39.782125,0.517525773195876
"347","08EAS1536","08EAS1536_19",2019-07-18 15:10:00,6.06985,6.39795,0.948717948717949
"348","09COV1862","09COV1862_19",2019-07-18 15:30:00,9.5149,12.63185,0.753246753246753
"349","08ISS3962","08ISS3962_19",2019-07-18 16:50:00,50.1993,51.67575,0.971428571428571
"350","08WES1178","08WES1178_19",2019-07-18 18:10:00,5.0281325,8.7356625,0.575586854460094
"351","09COV1864","09COV1864_19",2019-07-18 18:56:00,6.2339,11.729575,0.531468531468532
"352","08WES0905","08WES0905_19",2019-07-18 21:30:00,10.5402125,11.893625,0.886206896551724
"353","07PAT166087","07PAT166087_19",2019-07-22 16:37:00,10.66325,16.0358875,0.664961636828644
"354","07TKL072439","07TKL072439_19",2019-07-22 18:35:00,7.628325,9.432875,0.808695652173913
"355","08ISS4748","08ISS4748_19",2019-07-22 19:50:00,15.502725,19.0708125,0.812903225806451
"356","09DUW0225","09DUW0225_19",2019-07-23 15:45:00,4.019225,7.38225,0.544444444444445
"357","08CED4192","08CED4192_19",2019-07-23 16:00:00,20.83435,25.9199,0.80379746835443
"358","09DUW0091","09DUW0091_19",2019-07-23 19:30:00,4.75745,6.151875,0.773333333333333
"359","08ISS4735","08ISS4735_19",2019-07-23 20:00:00,5.41365,8.2025,0.66
"360","08SAM2855","08SAM2855_19",2019-07-25 19:00:00,4.1422625,6.8901,0.601190476190476
"361","07RAG004615","07RAG004615_19",2019-07-29 15:30:00,43.6373,58.975975,0.739916550764951
"362","08ISS4884","08ISS4884_19",2019-07-29 16:00:00,5.8647875,10.581225,0.554263565891473
"363","07RAG018227","07RAG018227_19",2019-07-29 18:30:00,20.9984,30.595325,0.686327077747989
"364","08ISS4294","08ISS4294_19",2019-07-29 18:45:00,11.073375,15.0926,0.733695652173913
"365","09MID1958","09MID1958_19",2019-07-29 20:45:00,11.237425,19.3579,0.580508474576271
"366","08ISS4730","08ISS4730_19",2019-07-29 22:00:00,19.19385,25.42775,0.754838709677419
"367","08CED5032","08CED5032_19",2019-07-31 16:00:00,9.9660375,16.322975,0.610552763819096
"368","08CED4975","08CED4975_19",2019-07-31 17:30:00,4.019225,6.808075,0.590361445783133
"369","08CED5046","08CED5046_19",2019-07-31 20:00:00,15.010575,18.53765,0.809734513274336
"370","08CED2898","08CED2898_19",2019-08-01 15:12:00,1.8455625,3.198975,0.576923076923077
"371","07SFS066611","07SFS066611_19",2019-08-01 16:15:00,7.792375,12.7959,0.608974358974359
"372","08CED2518","08CED2518_19",2019-08-01 17:30:00,7.792375,8.481385,0.918762088974855
"373","07LMS055075","07LMS055075_19",2019-08-01 19:30:00,9.268825,11.97565,0.773972602739726
"374","08CED2711","08CED2711_19",2019-08-01 20:45:00,8.8587,11.6885625,0.757894736842105
"375","08LIT2781","08LIT2781_19",2019-08-05 15:45:00,17.0612,21.81865,0.781954887218045
"376","08NOR2306","08NOR2306_19",2019-08-05 19:00:00,20.260175,27.5604,0.735119047619048
"377","08EVA3642","08EVA3642_19",2019-08-06 07:00:00,4.3883375,6.06985,0.722972972972973
"378","08SAM2674","08SAM2674_19",2019-08-06 16:45:00,6.972125,23.213075,0.300353356890459
"379","08BEA3650","08BEA3650_19",2019-08-06 17:30:00,21.080425,23.45915,0.898601398601399
"380","08BEA3826","08BEA3826_19",2019-08-06 17:40:00,2.870875,10.581225,0.271317829457364
"381","08BEA3914","08BEA3914_19",2019-08-06 19:25:00,6.808075,15.58475,0.436842105263158
"382","08NOR1362","08NOR1362_19",2019-08-06 19:40:00,25.017625,30.103175,0.831062670299727
"383","08LAK3121","08LAK3121_19",2019-08-06 20:17:00,4.0602375,6.151875,0.66
"384","07RAG002867","07RAG002867_19",2019-08-07 15:45:00,6.8901,7.8744,0.875
"385","09MID1374","09MID1374_19",2019-08-07 16:00:00,7.0131375,8.9817375,0.780821917808219
"386","07RAG043443","07RAG043443_19",2019-08-07 18:45:00,59.55015,67.506575,0.882138517618469
"387","09NEW1657","09NEW1657_19",2019-08-07 20:00:00,20.9573875,28.2166,0.742732558139535
"388","08EVA3637","08EVA3637_19",2019-08-08 16:00:00,3.1579625,4.4211475,0.714285714285714
"389","07CHR045515","07CHR045515_19",2019-08-08 16:30:00,21.408525,31.579625,0.677922077922078
"390","08LAK3879","08LAK3879_19",2019-08-12 15:15:00,11.2784375,13.698175,0.823353293413174
"391","07TKL047047","07TKL047047_19",2019-08-12 15:30:00,28.954825,32.235825,0.898218829516539
"392","07PAT001415","07PAT001415_19",2019-08-12 18:30:00,8.2025,11.8526125,0.69204152249135
"393","09DUW0277","09DUW0277_19",2019-08-12 19:20:00,3.57629,6.3405325,0.564036222509703
"394","09MID1817","09MID1817_19",2019-08-13 15:45:00,7.8744,9.67895,0.813559322033898
"395","09COV1756","09COV1756_19",2019-08-13 19:47:00,35.7629,44.2935,0.807407407407407
"396","07LMS033235","07LMS033235_19",2019-08-14 16:05:00,22.458445,28.626725,0.784527220630373
"397","07RAG022147","07RAG022147_19",2019-08-14 17:15:00,9.268825,14.1083,0.656976744186046
"398","09SOO1134","09SOO1134_19",2019-08-15 15:15:00,35.92695,39.125925,0.918238993710692
"399","09SOO1130","09SOO1130_19",2019-08-15 19:00:00,47.2874125,56.92535,0.830691642651297
"400","08BEA3747","08BEA3747_19",2019-08-19 15:45:00,39.454025,55.777,0.707352941176471
"401","09DEE2211","09DEE2211_19",2019-08-19 16:20:00,9.0309525,9.8840125,0.913692946058091
"402","08BEA3571","08BEA3571_19",2019-08-19 18:45:00,22.064725,22.064725,1
"403","08NOR1750","08NOR1750_19",2019-08-19 21:15:00,24.853575,28.5447,0.870689655172414
"404","07HAR025863","07HAR025863_19",2019-08-20 15:54:00,7.05415,9.5149,0.741379310344828
"405","08EAS2546","08EAS2546_19",2019-08-20 17:45:00,3.691125,4.183275,0.882352941176471
"406","07GRN022903","07GRN022903_19",2019-08-20 18:39:00,10.66325,17.963475,0.593607305936073
"407","08EAS1964","08EAS1964_19",2019-08-20 21:00:00,24.3532225,28.7825725,0.846110002849815
"408","08LAK3628","08LAK3628_19",2019-08-22 15:15:00,4.7328425,7.05415,0.67093023255814
"409","07STL080295","07STL080295_19",2019-08-22 17:30:00,83.911575,91.129775,0.920792079207921
"410","08NOR1370","08NOR1370_19",2019-08-22 19:30:00,27.5604,31.8257,0.865979381443299
"411","07CHR234411","07CHR234411_19",2019-08-22 21:15:00,17.7420075,28.298625,0.62695652173913
"412","WalkerPreserve","WalkerPreserve_19",2019-08-26 15:15:00,9.596925,10.4992,0.9140625
"413","Miller_SWSSD","Miller_SWSSD_19",2019-08-26 15:20:00,11.401475,19.111825,0.59656652360515
"414","Miller_Cove","Miller_Cove_19",2019-08-26 17:00:00,14.92855,18.127525,0.823529411764706
"415","08WES1340","08WES1340_19",2019-08-26 18:15:00,6.72605,18.0455,0.372727272727273
"416","08SAM2865","08SAM2865_19",2019-08-27 15:30:00,5.5366875,7.77597,0.712025316455696
"417","07LNT163403","07LNT163403_19",2019-08-27 16:30:00,9.35085,19.932075,0.469135802469136
"418","07SFS041891","07SFS041891_19",2019-08-27 20:27:00,82.51715,100.56265,0.820554649265905
"419","07PAT187623","07PAT187623_19",2019-08-28 15:45:00,17.963475,20.17815,0.890243902439024
"420","08SAM3047","08SAM3047_19",2019-08-28 16:15:00,5.9058,9.268825,0.63716814159292
"421","07PAT231079","07PAT231079_19",2019-08-28 17:53:00,5.9058,8.448575,0.699029126213592
"422","09BLA0768","09BLA0768_19",2019-08-28 18:20:00,7.300225,9.8840125,0.738589211618257
"423","08WES0622","08WES0622_19",2019-08-28 20:05:00,3.6091,4.75745,0.758620689655172
"424","09DEE2208","09DEE2208_19",2019-08-28 21:00:00,20.260175,28.954825,0.69971671388102
"425","08LAK3540","08LAK3540_19",2019-08-29 15:15:00,6.8901,9.6215325,0.716112531969309
"426","08ISS3958","08ISS3958_19",2019-08-29 16:15:00,2.1736625,3.198975,0.679487179487179
"427","08ISS4573","08ISS4573_19",2019-08-29 18:00:00,6.39795,8.776675,0.728971962616823
"428","07CHR070059","07CHR070059_19",2019-09-03 16:00:00,8.8176875,14.4117925,0.611838360842345
"429","07GRN077319","07GRN077319_19",2019-09-03 18:00:00,21.080425,31.00545,0.67989417989418
"430","09BLA0817","09BLA0817_19",2019-09-04 18:55:00,8.2763225,11.040565,0.74962852897474
"431","08EAS2058","08EAS2058_19",2019-09-04 21:10:00,17.799425,25.9199,0.686708860759494
"432","09LOW0753","09LOW0753_19",2019-09-05 16:15:00,2.6658125,5.5777,0.477941176470588
"433","07LMS026663","07LMS026663_19",2019-09-05 17:15:00,152.648525,205.7187,0.742025518341308
"434","09LOW0751","09LOW0751_19",2019-09-05 18:15:00,4.839475,8.448575,0.572815533980582
"435","07LMS103591","07LMS103591_19",2019-09-05 19:45:00,23.45915,34.28645,0.684210526315789
"436","09JEN1318","09JEN1318_19",2019-09-05 20:15:00,22.556875,27.150275,0.830815709969789
"437","08LAK3699","08LAK3699_19",2019-09-09 18:15:00,12.549825,13.041975,0.962264150943396
"438","09LOW0325","09LOW0325_19",2019-09-10 15:15:00,5.266005,10.00705,0.526229508196721
"439","BSE_21_GolfCrs","BSE_21_GolfCrs_19",2019-09-10 16:45:00,23.1720625,25.345725,0.914239482200647
"440","09MIL0340","09MIL0340_19",2019-09-10 17:15:00,6.9475175,9.77738,0.710570469798658
"441","08EVA3813","08EVA3813_19",2019-09-10 18:15:00,7.8744,14.682475,0.536312849162011
"442","09NEW2128","09NEW2128_19",2019-09-10 19:30:00,10.66325,12.95995,0.822784810126582
"443","08EAS2446","08EAS2446_19",2019-09-11 15:24:00,16.322975,24.2794,0.672297297297297
"444","08EAS2540","08EAS2540_19",2019-09-11 17:30:00,5.7663575,8.23531,0.700199203187251
"445","09MID1744","09MID1744_19",2019-09-11 18:15:00,11.5245125,14.026275,0.821637426900585
"446","08LAK2827","08LAK2827_19",2019-09-11 20:00:00,3.855175,4.9625125,0.776859504132231
"447","07SFS011475","07SFS011475_19",2019-09-12 15:30:00,95.559125,133.126575,0.717806531115219
"448","09COV1165","09COV1165_19",2019-09-12 15:30:00,21.244475,29.282925,0.725490196078431
"449","07LMS093027","07LMS093027_19",2019-09-12 17:15:00,205.308575,242.794,0.845608108108108
"450","07SFS011059","07SFS011059_19",2019-09-12 19:30:00,64.9638,83.0093,0.782608695652174
"451","08EVA3640","08EVA3640_19",2019-09-16 15:40:00,7.300225,7.5463,0.967391304347826
"452","08EAS2191","08EAS2191_19",2019-09-16 18:05:00,7.792375,10.909325,0.714285714285714
"453","08LIT2585","08LIT2585_19",2019-09-17 18:00:00,17.799425,22.556875,0.789090909090909
"454","08SAM2862","08SAM2862_19",2019-09-18 16:45:00,4.0602375,6.72605,0.603658536585366
"455","08EAS2631","08EAS2631_19",2019-09-18 17:00:00,30.595325,34.368475,0.890214797136038
"456","08SAM3045","08SAM3045_19",2019-09-18 20:00:00,5.167575,8.448575,0.611650485436893
"457","08WES1037","08WES1037_19",2019-09-18 20:15:00,5.8647875,6.479975,0.90506329113924
"458","08LAK3880","08LAK3880_19",2019-09-19 14:45:00,4.42935,6.06985,0.72972972972973
"459","07HAR070087","07HAR070087_19",2019-09-19 15:00:00,4.2653,8.940725,0.477064220183486
"460","09BLA0771","09BLA0771_19",2019-09-19 15:15:00,4.9215,7.792375,0.631578947368421
"461","09SOO1283","09SOO1283_19",2019-09-19 16:15:00,20.50625,25.181675,0.814332247557003
"462","09COV1418","09COV1418_19",2019-09-19 17:15:00,16.7331,30.08677,0.556161395856052
"463","07SFS009443","07SFS009443_19",2019-09-19 17:45:00,86.536375,102.0391,0.848070739549839
"464","09SOO1022","09SOO1022_19",2019-09-19 20:15:00,9.432875,16.0358875,0.588235294117647
"465","08LAK3627","08LAK3627_19",2019-09-23 15:15:00,6.414355,7.0951625,0.904046242774566
"466","08CED2433","08CED2433_19",2019-09-23 17:15:00,6.72605,7.2592125,0.926553672316384
"467","08WES1490","08WES1490_19",2019-09-23 19:15:00,6.1108625,7.5873125,0.805405405405405
"468","09BLA0675","09BLA0675_19",2019-09-24 15:10:00,8.448575,16.405,0.515
"469","09MIL0390","09MIL0390_19",2019-09-24 17:30:00,8.448575,9.760975,0.865546218487395
"470","08SAM0000","08SAM0000_19",2019-09-24 19:30:00,7.628325,8.36655,0.911764705882353
"471","09JEN1357","09JEN1357_19",2019-09-24 20:00:00,20.194555,28.5447,0.707471264367816
"472","07PAT228627","07PAT228627_19",2019-09-25 15:30:00,16.9545675,21.0066025,0.807106598984772
"473","08WES0629","08WES0629_19",2019-09-25 18:30:00,12.2627375,23.0900375,0.531083481349911
"474","09BLA0716","09BLA0716_19",2019-09-26 15:00:00,7.792375,9.1868,0.848214285714286
"475","09MID1537","09MID1537_19",2019-09-26 17:30:00,3.034925,6.1928875,0.490066225165563
"476","09SOO1209","09SOO1209_19",2019-09-26 19:45:00,11.4835,12.30375,0.933333333333333
"477","VashShing","VashShin_19",2019-09-30 15:45:00,10.909325,19.932075,0.547325102880658
"478","09DEE2294","09DEE2294_19",2019-09-30 16:15:00,27.5604,32.64595,0.844221105527638
"479","VashChris","VashChris_19",2019-09-30 17:45:00,5.41365,7.956425,0.680412371134021
"480","28A","28A_19",2019-09-30 19:00:00,11.4424875,15.91285,0.719072164948454
"481","09MID2426","09MID2426_19",2019-09-30 20:15:00,5.0937525,6.972125,0.730588235294118
"482","08LIT2602","08LIT2602_19",2019-10-01 15:15:00,9.35085,10.417175,0.897637795275591
"483","08BEA3321","08BEA3321_19",2019-10-01 16:00:00,8.284525,10.089075,0.821138211382114
"484","08WES0903","08WES0903_19",2019-10-01 17:15:00,17.55335,19.603975,0.895397489539749
"485","08LIT2692","08LIT2692_19",2019-10-01 17:45:00,25.181675,26.001925,0.968454258675079
"486","08SAM1914","08SAM1914_19",2019-10-01 20:45:00,7.300225,9.67895,0.754237288135593
"487","07LNT075179","07LNT075179_19",2019-10-02 17:15:00,21.49055,44.45755,0.483394833948339
"488","09NEW2102","09NEW2102_19",2019-10-03 16:15:00,10.4581875,11.3604625,0.92057761732852
"489","08EAS2272","08EAS2272_19",2019-10-03 19:30:00,11.0323625,15.25665,0.723118279569892
"490","09NEW2076","09NEW2076_19",2019-10-07 16:00:00,10.13829,9.8019875,1.03430962343096
"491","08LIT2603","08LIT2603_19",2019-10-07 20:15:00,6.1108625,8.2025,0.745
"492","08ISS4724","08ISS4724_19",2019-10-11 15:15:00,17.88145,24.033325,0.744027303754266
"493","08ISS3877","08ISS3877_20",2020-07-20 17:30:00,28.2166,76.857425,0.367129135538954
"494","08BEA3737","08BEA3737_20",2020-07-21 20:20:00,7.5463,11.1554,0.676470588235294
"495","09MIL0340","09MIL0340_20",2020-07-22 17:00:00,5.364435,8.59622,0.624045801526718
"496","09MIL0390","09MIL0390_20",2020-07-22 18:45:00,9.31804,10.9995525,0.847129008202834
"497","09DUW0225","09DUW0225_20",2020-07-22 22:15:00,10.0152525,22.884975,0.437634408602151
"498","09COV1165","09COV1165_20",2020-07-23 16:35:00,19.177445,30.628135,0.626138189608998
"499","09JEN1318","09JEN1318_20",2020-07-23 20:30:00,22.6389,26.08395,0.867924528301887
"500","09BLA0675","09BLA0675_20",2020-07-27 17:00:00,8.120475,25.6328125,0.3168
"501","08EAS2058","08EAS2058_20",2020-07-27 19:30:00,19.439925,31.00545,0.626984126984127
"502","09BLA0716","09BLA0716_20",2020-07-27 19:45:00,8.4895875,9.94143,0.853960396039604
"503","09DUW0091","09DUW0091_20",2020-07-28 15:30:00,5.41365,7.464275,0.725274725274725
"504","08CED5046","08CED5046_20",2020-07-28 17:45:00,15.61756,41.6769025,0.374729383979532
"505","08ISS4724","08ISS4724_20",2020-07-28 18:15:00,11.532715,40.930475,0.281763527054108
"506","09COV1756","09COV1756_20",2020-07-28 19:50:00,40.3563,46.508175,0.867724867724868
"507","08ISS4294","08ISS4294_20",2020-07-29 15:50:00,13.18962,18.652485,0.70712401055409
"508","07PAT231079","07PAT231079_20",2020-07-29 16:30:00,5.70894,8.8833075,0.642659279778393
"509","09MID1374","09MID1374_20",2020-07-29 17:30:00,8.69465,11.8116,0.736111111111111
"510","09COV1418","09COV1418_20",2020-07-29 21:00:00,18.127525,28.05255,0.646198830409357
"511","08WES1178","08WES1178_20",2020-07-30 15:30:00,5.01993,8.7192575,0.575729068673565
"512","09COV1862","09COV1862_20",2020-07-30 16:30:00,5.331625,10.745275,0.49618320610687
"513","08NOR1370","08NOR1370_20",2020-07-30 18:30:00,24.9438025,27.16668,0.918176328502415
"514","08ISS4884","08ISS4884_20",2020-08-03 17:00:00,5.2085875,11.3604625,0.458483754512635
"515","09MID1817","09MID1817_20",2020-08-03 18:15:00,7.38225,9.104775,0.810810810810811
"516","08ISS4748","08ISS4748_20",2020-08-03 20:00:00,11.4835,17.88145,0.642201834862385
"517","09COV1864","09COV1864_20",2020-08-03 21:00:00,4.7164375,12.057675,0.391156462585034
"518","08ISS3962","08ISS3962_20",2020-08-03 22:20:00,47.328425,57.007375,0.830215827338129
"519","08EVA3640","08EVA3640_20",2020-08-04 16:00:00,7.464275,7.6857425,0.971184631803628
"520","09SOO1134","09SOO1134_20",2020-08-04 16:00:00,35.4265975,39.0685075,0.906781440268738
"521","07HAR025863","07HAR025863_20",2020-08-05 16:40:00,9.87581,13.4603025,0.733698964046313
"522","08CED2898","08CED2898_20",2020-08-05 16:50:00,2.870875,3.44505,0.833333333333333
"523","09LOW0753","09LOW0753_20",2020-08-05 19:10:00,3.44505,5.74175,0.6
"524","08CED4192","08CED4192_20",2020-08-05 19:30:00,16.979175,19.275875,0.880851063829787
"525","08CED2518","08CED2518_20",2020-08-05 23:10:00,8.98994,11.1636025,0.805290227773696
"526","09DEE2211","09DEE2211_20",2020-08-06 16:35:00,7.5709075,9.006345,0.840619307832423
"527","08LAK3879","08LAK3879_20",2020-08-06 17:15:00,9.9004175,15.3468775,0.64510956707643
"528","09DEE2208","09DEE2208_20",2020-08-06 19:00:00,19.8910625,25.9937225,0.765225623224992
"529","08WES0622","08WES0622_20",2020-08-06 19:01:00,4.4703625,5.8155725,0.768688293370945
"530","08WES0629","08WES0629_20",2020-08-06 20:45:00,19.439925,23.78725,0.817241379310345
"531","07PAT166087","07PAT166087_20",2020-08-10 17:15:00,8.8833075,14.419995,0.616040955631399
"532","08BEA3650","08BEA3650_20",2020-08-10 17:45:00,20.6456925,23.39353,0.882538569424965
"533","07PAT187623","07PAT187623_20",2020-08-10 20:00:00,11.2292225,15.1172075,0.742810634834509
"534","09BLA0771","09BLA0771_20",2020-08-11 15:30:00,4.5934,9.2278125,0.497777777777778
"535","08LIT2685","08LIT2685_20",2020-08-11 17:30:00,15.0926,18.5923333333333,0.811764705882353
"536","09BLA0772","09BLA0772_20",2020-08-11 17:30:00,4.9215,11.565525,0.425531914893617
"537","08CED2711","08CED2711_20",2020-08-11 20:00:00,10.253125,11.729575,0.874125874125874
"538","08LIT2692","08LIT2692_20",2020-08-11 21:23:00,11.8116,20.9984,0.5625
"539","08NOR1750","08NOR1750_20",2020-08-12 16:45:00,22.2697875,26.8795925,0.828501678364358
"540","07LMS033235","07LMS033235_20",2020-08-12 17:30:00,16.0686975,30.54611,0.526047261009667
"541","08BEA3571","08BEA3571_20",2020-08-12 21:00:00,24.6977275,24.8125625,0.995371900826446
"542","08LAK3121","08LAK3121_20",2020-08-13 16:30:00,9.432875,13.4521,0.701219512195122
"543","09BLA0817","09BLA0817_20",2020-08-13 18:30:00,5.2496,11.729575,0.447552447552448
"544","08LAK2827","08LAK2827_20",2020-08-13 19:45:00,4.183275,4.839475,0.864406779661017
"545","07TKL072439","07TKL072439_20",2020-08-13 20:00:00,7.71035,11.4835,0.671428571428571
"546","08CED2433","08CED2433_20",2020-08-17 16:20:00,5.9058,7.792375,0.757894736842105
"547","09BLA0722","09BLA0722_20",2020-08-17 19:40:00,7.5463,18.0455,0.418181818181818
"548","09JEN1357","09JEN1357_20",2020-08-17 22:00:00,15.25665,18.3736,0.830357142857143
"549","08ISS4730","08ISS4730_20",2020-08-18 16:30:00,12.4678,23.213075,0.537102473498233
"550","08ISS4735","08ISS4735_20",2020-08-18 19:45:00,4.2653,11.97565,0.356164383561644
"551","08LAK3628","08LAK3628_20",2020-08-19 16:40:00,5.0445375,6.4389625,0.78343949044586
"552","09BLA0768","09BLA0768_20",2020-08-19 19:40:00,7.6857425,8.2025,0.937
"553","08EAS1964","08EAS1964_20",2020-08-19 22:00:00,19.275875,25.5507875,0.754414125200642
"554","08SAM2674","08SAM2674_20",2020-08-20 16:15:00,6.6194175,7.28382,0.908783783783784
"555","08BEA3914","08BEA3914_20",2020-08-20 17:00:00,5.987825,15.502725,0.386243386243386
"556","08BEA3826","08BEA3826_20",2020-08-20 18:24:00,6.06985,14.27235,0.425287356321839
"557","08SAM3047","08SAM3047_20",2020-08-20 20:35:00,5.08555,7.792375,0.652631578947368
"558","08EVA3637","08EVA3637_20",2020-08-20 21:30:00,2.2392825,2.936495,0.762569832402235
"559","08LIT2781","08LIT2781_20",2020-08-21 07:10:00,19.9894925,24.230185,0.82498307379824
"560","08SAM1914","08SAM1914_20",2020-08-21 16:45:00,4.0766425,8.8997125,0.458064516129032
"561","07SFS066611","07SFS066611_20",2020-08-24 17:40:00,4.8968925,8.8176875,0.555348837209302
"562","09DEE2163","09DEE2163_20",2020-08-24 17:50:00,9.8019875,19.669595,0.498331943286072
"563","09DUW0277","09DUW0277_20",2020-08-24 20:30:00,4.675425,5.167575,0.904761904761905
"564","07SFS009443","07SFS009443_20",2020-08-24 21:30:00,81.778925,96.95355,0.843485617597293
"565","09LOW0325","09LOW0325_20",2020-08-24 22:10:00,4.5934,8.5306,0.538461538461538
"566","07PAT001415","07PAT001415_20",2020-08-25 16:00:00,6.972125,9.67895,0.720338983050847
"567","08NOR2306","08NOR2306_20",2020-08-25 16:00:00,17.6271725,28.77437,0.612599771949829
"568","08NOR1362","08NOR1362_20",2020-08-25 19:00:00,19.6777975,26.986225,0.729179331306991
"569","07STL080295","07STL080295_20",2020-08-25 19:15:00,74.97085,84.6498,0.885658914728682
"570","08WES0905","08WES0905_20",2020-08-25 22:15:00,9.87581,13.173215,0.749688667496887
"571","07RAG002867","07RAG002867_20",2020-08-26 18:40:00,6.7014425,12.17251,0.550539083557951
"572","07LNT130827","07LNT130827_20",2020-08-26 20:00:00,34.4505,NA,NA
"573","Miller_Cove","Miller_Cove_20",2020-08-27 16:15:00,13.0009625,17.55335,0.740654205607477
"574","07RAG012515","07RAG012515_20",2020-08-27 17:10:00,20.04691,47.6811325,0.420436951660072
"575","Miller_SWSSD","Miller_SWSSD_20",2020-08-27 18:55:00,9.8840125,14.6414625,0.675070028011205
"576","08EVA3813","08EVA3813_20",2020-08-27 20:00:00,8.120475,13.862225,0.585798816568047
"577","08LIT2682","08LIT2682_20",2020-08-27 20:30:00,19.52195,24.44345,0.798657718120805
"578","WalkerPreserve","WalkerPreserve_20",2020-08-27 21:15:00,8.448575,9.3098375,0.907488986784141
"579","08EAS1536","08EAS1536_20",2020-08-31 17:45:00,7.05415,7.5463,0.934782608695652
"580","BSE_1_MudMtnRd","BSE_1_MudMtnRd_20",2020-08-31 18:00:00,12.2627375,14.7234875,0.832869080779944
"581","BSE_8_268hAveSE","BSE_8_268hAveSE_20",2020-08-31 20:50:00,14.518425,21.16245,0.686046511627907
"582","08WES1579","08WES1579_20",2020-09-01 15:52:00,4.10125,7.628325,0.537634408602151
"583","08WES1490","08WES1490_20",2020-09-01 17:45:00,6.39795,9.3098375,0.687224669603524
"584","07RAG018227","07RAG018227_20",2020-09-01 19:30:00,14.1329075,36.7718075,0.384340843185367
"585","08WES1340","08WES1340_20",2020-09-01 20:00:00,9.925025,16.487025,0.601990049751244
"586","08WES1037","08WES1037_20",2020-09-01 22:05:00,6.39795,7.464275,0.857142857142857
"587","08EVA3642","08EVA3642_20",2020-09-02 16:00:00,5.823775,9.925025,0.586776859504132
"588","08SAM2865","08SAM2865_20",2020-09-02 16:15:00,6.7506575,8.10407,0.832995951417004
"589","07HAR070087","07HAR070087_20",2020-09-02 16:30:00,4.7492475,8.4075625,0.564878048780488
"590","BSE_21_GolfCrs","BSE_21_GolfCrs_20",2020-09-02 20:15:00,15.502725,20.9573875,0.73972602739726
"591","07RAG022147","07RAG022147_20",2020-09-03 16:50:00,6.50731666666667,7.16351666666667,0.908396946564885
"592","08EAS2631","08EAS2631_20",2020-09-03 18:20:00,10.253125,22.967,0.446428571428571
"593","07SFS041891","07SFS041891_20",2020-09-03 20:25:00,83.255375,95.723175,0.869751499571551
"594","08EAS2272","08EAS2272_20",2020-09-03 21:00:00,11.64755,13.7802,0.845238095238095
"595","08SAM0000","08SAM0000_20",2020-09-09 19:00:00,6.151875,11.1143875,0.55350553505535
"596","07STL184007","07STL184007_20",2020-09-10 18:00:00,100.0705,106.550475,0.939183987682833
"597","08LAK3540","08LAK3540_20",2020-09-21 16:00:00,4.281705,6.85729,0.624401913875598
"598","08LIT2585","08LIT2585_20",2020-09-21 16:30:00,17.7174,18.86575,0.939130434782609
"599","07LMS055075","07LMS055075_20",2020-09-21 16:45:00,9.1868,12.746685,0.720720720720721
"600","08LAK3627","08LAK3627_20",2020-09-21 17:55:00,5.31522,6.7178475,0.791208791208791
"601","08BEA3312","08BEA3312_20",2020-09-21 18:50:00,17.7174,21.572575,0.821292775665399
"602","07TKL047047","07TKL047047_20",2020-09-21 20:00:00,24.5828925,24.820765,0.990416391275611
"603","08EAS2546","08EAS2546_20",2020-09-21 22:00:00,4.314515,4.9215,0.876666666666667
"604","07LMS103591","07LMS103591_20",2020-09-22 16:42:00,25.837875,27.970525,0.92375366568915
"605","07LNT062039","07LNT062039_20",2020-09-22 17:15:00,62.0109,80.54855,0.769857433808554
"606","07LMS026663","07LMS026663_20",2020-09-22 18:55:00,141.083,206.703,0.682539682539683
"607","09MID1537","09MID1537_20",2020-09-22 20:00:00,3.0759375,4.9215,0.625
"608","07SFS011475","07SFS011475_20",2020-09-22 21:11:00,97.855825,154.207,0.634574468085106
"609","VashShing","VashShin_20",2020-09-22 21:20:00,11.237425,24.6075,0.456666666666667
"610","07GRN022903","07GRN022903_20",2020-09-23 16:30:00,13.81301,30.11958,0.458605664488017
"611","09MID2426","09MID2426_20",2020-09-23 16:30:00,5.922205,6.5537975,0.903629536921151
"612","09MID1958","09MID1958_20",2020-09-29 17:45:00,6.8901,18.127525,0.380090497737557
"613","07CHR070059","07CHR070059_20",2020-09-29 18:15:00,7.94002,13.4767075,0.589166159464394
"614","09MID1744","09MID1744_20",2020-09-29 20:25:00,7.300225,15.338675,0.475935828877005
"615","07CHR045515","07CHR045515_20",2020-09-29 21:45:00,30.6199325,34.532525,0.886698337292162
"616","08LIT2603","08LIT2603_20",2020-09-29 22:00:00,5.9304075,6.3241275,0.937743190661479
"617","09DEE2294","09DEE2294_20",2020-09-30 16:30:00,18.619675,22.6389,0.822463768115942
"618","08SAM2862","08SAM2862_20",2020-09-30 17:00:00,5.5777,10.909325,0.511278195488722
"619","09NEW2128","09NEW2128_20",2020-09-30 18:45:00,8.8587,11.5245125,0.768683274021352
"620","07GRN077319","07GRN077319_20",2020-09-30 19:45:00,19.439925,40.274275,0.482688391038696
"621","08SAM3045","08SAM3045_20",2020-09-30 20:00:00,5.7007375,7.956425,0.716494845360825
"622","08ISS4573","08ISS4573_20",2020-10-01 17:40:00,5.331625,15.4207,0.345744680851064
"623","09SOO1209","09SOO1209_20",2020-10-01 18:15:00,8.89151,11.05697,0.804154302670623
"624","09LOW0751","09LOW0751_20",2020-10-01 18:30:00,6.972125,11.1964125,0.622710622710623
"625","08LAK3880","08LAK3880_20",2020-10-01 19:30:00,4.675425,9.02275,0.518181818181818
"626","09SOO1022","09SOO1022_20",2020-10-01 20:45:00,9.728165,15.830825,0.614507772020725
"627","09NEW2076","09NEW2076_20",2020-10-01 21:00:00,8.69465,9.9988475,0.869565217391304
"628","07CHR234411","07CHR234411_20",2020-10-02 16:30:00,36.58315,76.61135,0.477516059957173
"629","28A","28A_20",2020-10-05 20:30:00,10.417175,19.686,0.529166666666667
"630","VashChris","VashChris_20",2020-10-05 22:00:00,5.003525,5.987825,0.835616438356164
"631","09SOO1283","09SOO1283_20",2020-10-06 21:00:00,17.307275,20.0141,0.864754098360656
"632","07SFS011059","07SFS011059_20",2020-10-07 16:30:00,64.9638,94.082675,0.690496948561465
"633","07PAT228627","07PAT228627_20",2020-10-07 19:00:00,9.925025,11.8116,0.840277777777778
"634","07LMS093027","07LMS093027_20",2020-10-07 19:21:00,137.802,229.67,0.6
"635","08LAK3699","08LAK3699_20",2020-10-07 21:50:00,8.03845,10.745275,0.748091603053435
"636","08CED5046","08CED5046_21",2021-07-12 20:45:00,19.5957725,39.6262775,0.494514593251915
"637","08CED5032","08CED5032_21",2021-07-13 20:45:00,12.63185,21.7776375,0.580037664783427
"638","08WES1178","08WES1178_21",2021-07-14 19:30:00,6.8162775,16.4624175,0.414050822122571
"639","08ISS4724","08ISS4724_21",2021-07-14 20:45:00,17.91426,37.0753,0.483185840707965
"640","08SAM1914","08SAM1914_21",2021-07-19 16:00:00,5.41365,12.5252175,0.432220039292731
"641","09MIL0340","09MIL0340_21",2021-07-19 16:00:00,6.562,10.7862875,0.608365019011407
"642","08SAM2855","08SAM2855_21",2021-07-19 18:45:00,4.9215,8.30093,0.592885375494071
"643","09MIL0390","09MIL0390_21",2021-07-19 19:15:00,9.35085,11.729575,0.797202797202797
"644","08BEA3312","08BEA3312_21",2021-07-19 21:00:00,6.151875,8.875105,0.693160813308688
"645","09MID1817","09MID1817_21",2021-07-19 21:45:00,6.775265,9.531305,0.710843373493976
"646","07HAR070087","07HAR070087_21",2021-07-20 17:15:00,3.822365,7.8169825,0.488982161594963
"647","07TKL072439","07TKL072439_21",2021-07-20 19:30:00,5.495675,10.99135,0.5
"648","08EVA3642","08EVA3642_21",2021-07-20 20:15:00,7.4724775,11.959245,0.62482853223594
"649","07LMS055075","07LMS055075_21",2021-07-21 16:15:00,9.400065,13.7391875,0.684179104477612
"650","07PAT231079","07PAT231079_21",2021-07-21 16:30:00,5.003525,7.9974375,0.625641025641026
"651","08EAS2540","08EAS2540_21",2021-07-21 19:45:00,3.5680875,10.3597575,0.344418052256532
"652","08EAS2446","08EAS2446_21",2021-07-21 22:00:00,13.829415,28.1263725,0.491688538932633
"653","09COV1862","09COV1862_21",2021-07-22 15:30:00,8.10407,10.4992,0.771875
"654","08CED2898","08CED2898_21",2021-07-22 16:15:00,2.0260175,3.723935,0.544052863436123
"655","08WES0622","08WES0622_21",2021-07-22 17:00:00,3.281,6.0288375,0.54421768707483
"656","08EAS2631","08EAS2631_21",2021-07-22 18:36:00,18.86575,38.108815,0.495049504950495
"657","09COV1864","09COV1864_21",2021-07-22 19:00:00,6.217495,8.5223975,0.729547641963426
"658","08ISS4730","08ISS4730_21",2021-07-26 17:00:00,16.322975,28.298625,0.576811594202899
"659","07SFS066611","07SFS066611_21",2021-07-26 17:20:00,6.16828,10.4581875,0.589803921568627
"660","08ISS4735","08ISS4735_21",2021-07-26 20:30:00,5.9058,17.7420075,0.332871012482663
"661","08ISS4748","08ISS4748_21",2021-07-26 20:50:00,11.1554,15.732395,0.709071949947862
"662","08WES0905","08WES0905_21",2021-07-26 22:30:00,10.5566175,12.549825,0.841176470588235
"663","08ISS3877","08ISS3877_21",2021-07-27 15:45:00,24.1399575,100.152525,0.241031941031941
"664","09DUW0091","09DUW0091_21",2021-07-28 16:15:00,5.21679,15.7405975,0.331422615945805
"665","ZAK","ZAK_21",2021-07-28 16:30:00,7.4724775,15.010575,0.497814207650273
"666","09DEE2211","09DEE2211_21",2021-07-28 17:00:00,6.9311125,10.745275,0.645038167938931
"667","09DUW0225","09DUW0225_21",2021-07-28 19:30:00,8.4895875,34.2782475,0.247666905958363
"668","09NEW2128","09NEW2128_21",2021-07-28 19:30:00,8.36655,16.89715,0.495145631067961
"669","08LAK3540","08LAK3540_21",2021-07-28 20:00:00,6.3733425,8.3583475,0.762512266928361
"670","09NEW2102","09NEW2102_21",2021-07-28 21:00:00,8.4075625,13.3290625,0.630769230769231
"671","08EAS2058","08EAS2058_21",2021-07-29 16:45:00,20.588275,28.462675,0.723342939481268
"672","08CED4192","08CED4192_21",2021-08-02 17:00:00,19.735215,24.4516525,0.807111707480711
"673","09JEN1318","09JEN1318_21",2021-08-02 20:30:00,22.556875,31.087475,0.725593667546174
"674","09JEN1357","09JEN1357_21",2021-08-02 22:15:00,23.377125,26.494075,0.882352941176471
"675","08BEA3650","08BEA3650_21",2021-08-04 15:30:00,15.8718375,18.0455,0.879545454545455
"676","08WES0903","08WES0903_21",2021-08-04 17:30:00,17.799425,18.619675,0.955947136563876
"677","09SOO1022","09SOO1022_21",2021-08-04 17:30:00,8.7356625,19.768025,0.441908713692946
"678","08BEA3737","08BEA3737_21",2021-08-04 18:00:00,6.5702025,9.8019875,0.670292887029289
"679","09SOO1134","09SOO1134_21",2021-08-04 20:30:00,32.64595,36.7472,0.888392857142857
"680","08EAS2191","08EAS2191_21",2021-08-04 21:30:00,4.3063125,9.1457875,0.47085201793722
"681","07LMS033235","07LMS033235_21",2021-08-05 16:00:00,18.7017,32.1127875,0.582375478927203
"682","09MID1958","09MID1958_21",2021-08-05 16:45:00,9.02275,17.143225,0.526315789473684
"683","09MID1744","09MID1744_21",2021-08-05 20:15:00,12.63185,20.916375,0.603921568627451
"684","08LAK2827","08LAK2827_21",2021-08-05 20:30:00,4.7984625,6.10266,0.786290322580645
"685","07RAG004615","07RAG004615_21",2021-08-09 17:00:00,49.8712,64.7587375,0.770107663077897
"686","08BEA3747","08BEA3747_21",2021-08-09 17:00:00,58.6068625,60.5754625,0.967501692620176
"687","07PAT166087","07PAT166087_21",2021-08-09 20:00:00,11.762385,14.27235,0.824137931034483
"688","08NOR1370","08NOR1370_21",2021-08-09 21:00:00,29.446975,38.55175,0.763829787234042
"689","08WES1490","08WES1490_21",2021-08-12 15:30:00,5.01993,10.4089725,0.482269503546099
"690","09LOW0753","09LOW0753_21",2021-08-12 16:00:00,4.3719325,7.1771875,0.609142857142857
"691","07STL184007","07STL184007_21",2021-08-12 17:30:00,103.18745,109.74945,0.940209267563528
"692","08LIT2692","08LIT2692_21",2021-08-12 18:15:00,12.746685,42.4807475,0.300057926240587
"693","08WES1579","08WES1579_21",2021-08-12 18:20:00,4.49497,5.856585,0.76750700280112
"694","09SOO0943","09SOO0943_21",2021-08-12 19:15:00,35.59885,39.0439,0.911764705882353
"695","08LIT2602","08LIT2602_21",2021-08-12 22:00:00,9.843,12.1397,0.810810810810811
"696","07PAT228627","07PAT228627_21",2021-08-17 16:45:00,10.3761625,41.914775,0.247553816046967
"697","07RAG043443","07RAG043443_21",2021-08-17 21:30:00,45.6059,82.271075,0.554336989032901
"698","09DUW0277","09DUW0277_21",2021-08-18 18:30:00,4.8312725,6.92291,0.697867298578199
"699","08EAS2546","08EAS2546_21",2021-08-19 16:00:00,4.248895,9.21961,0.46085409252669
"700","08SAM0000","08SAM0000_21",2021-08-19 16:45:00,6.644025,11.237425,0.591240875912409
"701","08WES0629","08WES0629_21",2021-08-19 21:00:00,15.91285,29.2009,0.544943820224719
"702","07GRN022903","07GRN022903_21",2021-08-23 17:05:00,11.1554,33.712275,0.330900243309002
"703","07CHR045515","07CHR045515_21",2021-08-23 17:45:00,23.049025,35.0820925,0.657002571896189
"704","07LNT062039","07LNT062039_21",2021-08-23 20:45:00,66.686325,91.04775,0.732432432432432
"705","07CHR234411","07CHR234411_21",2021-08-23 22:00:00,26.2562025,65.3821275,0.401580730146782
"706","08LAK3121","08LAK3121_21",2021-08-24 16:45:00,6.840885,13.2470375,0.51640866873065
"707","07LNT075179","07LNT075179_21",2021-08-24 18:30:00,11.1554,48.476775,0.230118443316413
"708","08NOR2115","08NOR2115_21",2021-08-24 20:30:00,6.315925,7.05415,0.895348837209302
"709","08ISS3962","08ISS3962_21",2021-08-25 17:15:00,44.4985625,58.319775,0.763009845288326
"710","07LNT130827","07LNT130827_21",2021-08-25 18:00:00,60.944575,200.30505,0.304258804258804
"711","08SAM2674","08SAM2674_21",2021-08-26 16:45:00,8.612625,46.75425,0.184210526315789
"712","08ISS4573","08ISS4573_21",2021-08-26 17:00:00,7.792375,34.860625,0.223529411764706
"713","08LAK3699","08LAK3699_21",2021-08-26 20:00:00,11.4835,15.91285,0.721649484536083
"714","08BEA3474","08BEA3474_21",2021-08-26 21:00:00,23.78725,28.38065,0.838150289017341
"715","08WES1340","08WES1340_21",2021-08-30 16:45:00,7.51349,17.55335,0.42803738317757
"716","08LIT2585","08LIT2585_21",2021-08-31 17:15:00,17.963475,22.228775,0.808118081180812
"717","08SAM2862","08SAM2862_21",2021-08-31 21:00:00,5.08555,10.581225,0.48062015503876
"718","BSE_1_MudMtnRd","BSE_1_MudMtnRd_21",2021-09-01 16:30:00,20.752325,44.9086875,0.462100456621005
"719","BSE_8_268hAveSE","BSE_8_268hAveSE_21",2021-09-01 19:15:00,17.635375,27.314325,0.645645645645646
"720","BSE_21_GolfCrs","BSE_21_GolfCrs_21",2021-09-01 21:00:00,20.2191625,29.9801375,0.674418604651163
"721","07PAT001415","07PAT001415_21",2021-09-02 17:00:00,5.987825,13.94425,0.429411764705882
"722","08BEA3914","08BEA3914_21",2021-09-02 17:00:00,6.562,15.666775,0.418848167539267
"723","07STL080295","07STL080295_21",2021-09-02 20:30:00,86.9465,113.1945,0.768115942028985
"724","08BEA3826","08BEA3826_21",2021-09-02 20:30:00,4.347325,10.33515,0.420634920634921
"725","07SFS041891","07SFS041891_21",2021-09-02 20:45:00,85.9622,108.9292,0.789156626506024
"726","08SAM3047","08SAM3047_21",2021-09-08 18:30:00,4.8804875,8.448575,0.577669902912621
"727","08EVA3813","08EVA3813_21",2021-09-09 16:30:00,6.72605,12.1397,0.554054054054054
"728","08SAM3045","08SAM3045_21",2021-09-09 19:45:00,5.08555,6.562,0.775
"729","VashShing","VashShin_21",2021-09-13 16:30:00,14.354375,20.752325,0.691699604743083
"730","09BLA0716","09BLA0716_21",2021-09-13 16:45:00,8.5059925,9.367255,0.908056042031524
"731","07LMS213875","07LMS213875_21",2021-09-13 17:15:00,220.97535,238.118575,0.928005511539786
"732","28A","28A_21",2021-09-13 18:30:00,13.534125,18.0455,0.75
"733","09BLA0675","09BLA0675_21",2021-09-13 19:30:00,11.6885625,38.1006125,0.306781485468245
"734","VashChris","VashChris_21",2021-09-13 21:00:00,4.9215,6.972125,0.705882352941176
"735","07SFS009443","07SFS009443_21",2021-09-13 21:15:00,86.6184,106.46845,0.813559322033898
"736","09BLA0771","09BLA0771_21",2021-09-13 21:45:00,5.1593725,11.8690175,0.434692467173462
"737","08CED2433","08CED2433_21",2021-09-14 16:15:00,6.3569375,7.792375,0.81578947368421
"738","Miller_Cove","Miller_Cove_21",2021-09-14 16:30:00,12.5908375,21.9416875,0.573831775700935
"739","08CED2518","08CED2518_21",2021-09-14 18:00:00,8.69465,12.7959,0.679487179487179
"740","Miller_SWSSD","Miller_SWSSD_21",2021-09-14 19:50:00,15.58475,22.425635,0.6949524506218
"741","08CED2711","08CED2711_21",2021-09-14 21:00:00,8.022045,11.6065375,0.691166077738516
"742","09NEW1657","09NEW1657_21",2021-09-15 16:45:00,51.34765,76.529325,0.670953912111468
"743","09BLA0772","09BLA0772_21",2021-09-15 21:00:00,7.0951625,12.5908375,0.563517915309446
"744","08EVA3637","08EVA3637_21",2021-09-16 15:45:00,1.9275875,2.69042,0.716463414634146
"745","07LMS103591","07LMS103591_21",2021-09-16 16:30:00,15.7488,30.103175,0.523160762942779
"746","07SFS011475","07SFS011475_21",2021-09-16 17:00:00,96.1333,216.463975,0.44410761652141
"747","08LIT2781","08LIT2781_21",2021-09-16 18:00:00,21.7776375,23.1720625,0.939823008849557
"748","08BEA3571","08BEA3571_21",2021-09-16 18:30:00,21.2854875,23.3361125,0.912126537785589
"749","07LMS026663","07LMS026663_21",2021-09-16 19:15:00,144.364,198.5005,0.727272727272727
"750","07SFS011059","07SFS011059_21",2021-09-16 20:00:00,62.6671,85.306,0.734615384615385
"751","08LIT2603","08LIT2603_21",2021-09-16 20:30:00,5.987825,8.36655,0.715686274509804
"752","08EAS1536","08EAS1536_21",2021-09-20 16:00:00,6.086255,7.5052875,0.810928961748634
"753","WalkerPreserve","WalkerPreserve_21",2021-09-20 16:15:00,7.661135,10.8683125,0.704905660377358
"754","08EAS2272","08EAS2272_21",2021-09-20 18:00:00,11.565525,13.3290625,0.867692307692308
"755","09BLA0722","09BLA0722_21",2021-09-20 18:00:00,7.136175,29.282925,0.243697478991597
"756","08EAS1964","08EAS1964_21",2021-09-20 20:30:00,21.3675125,26.0429375,0.820472440944882
"757","09BLA0756","09BLA0756_21",2021-09-20 20:30:00,10.33515,30.34925,0.340540540540541
"758","08LAK3628","08LAK3628_21",2021-09-21 16:00:00,5.1265625,7.2182,0.710227272727273
"759","09MID1374","09MID1374_21",2021-09-21 17:00:00,6.0780525,10.810895,0.562215477996965
"760","08ISS4294","08ISS4294_21",2021-09-21 17:15:00,11.729575,18.0044875,0.651480637813212
"761","09NEW2076","09NEW2076_21",2021-09-21 20:00:00,5.01993,14.20673,0.353348729792148
"762","08LAK3879","08LAK3879_21",2021-09-21 20:45:00,11.401475,15.666775,0.727748691099476
"763","07RAG018227","07RAG018227_21",2021-09-22 17:00:00,22.228775,35.188725,0.631701631701632
"764","08BEA3321","08BEA3321_21",2021-09-22 18:00:00,14.518425,14.682475,0.988826815642458
"765","07RAG022147","07RAG022147_21",2021-09-22 21:15:00,13.534125,19.603975,0.690376569037657
"766","07RAG012515","07RAG012515_21",2021-09-22 21:30:00,30.103175,50.8555,0.591935483870968
"767","08LAK3880","08LAK3880_21",2021-09-23 16:00:00,4.75745,6.39795,0.743589743589744
"768","08EVA3640","08EVA3640_21",2021-09-23 16:30:00,7.5463,8.284525,0.910891089108911
"769","07CHR070059","07CHR070059_21",2021-09-23 16:45:00,9.4738875,12.5088125,0.757377049180328
"770","09BLA0817","09BLA0817_21",2021-09-23 19:00:00,4.10125,13.370075,0.306748466257669
"771","07HAR025863","07HAR025863_21",2021-09-23 19:45:00,6.562,10.66325,0.615384615384615
"772","08SAM2865","08SAM2865_21",2021-09-23 19:45:00,7.71035,8.612625,0.895238095238095
"773","07GRN077319","07GRN077319_21",2021-09-23 21:35:00,21.244475,40.602375,0.523232323232323
"774","08WES1037","08WES1037_21",2021-09-28 21:40:00,6.3569375,9.3098375,0.682819383259912
"775","07PAT187623","07PAT187623_21",2021-09-29 15:45:00,11.97565,14.1493125,0.846376811594203
"776","07TKL047047","07TKL047047_21",2021-09-29 16:00:00,26.330025,28.626725,0.919770773638969
"777","08NOR1750","08NOR1750_21",2021-09-29 16:20:00,18.455625,31.33355,0.589005235602094
"778","08NOR2306","08NOR2306_21",2021-09-29 19:00:00,31.1695,35.516825,0.877598152424942
"779","07RAG002867","07RAG002867_21",2021-09-29 19:30:00,12.0986875,16.7084925,0.724104074619539
"780","07LNT163403","07LNT163403_21",2021-09-29 20:00:00,17.799425,22.967,0.775
"781","08LIT2682","08LIT2682_21",2021-09-29 21:40:00,18.947775,33.384175,0.567567567567568
"782","08NOR1362","08NOR1362_21",2021-10-04 17:15:00,25.5918,34.1224,0.75
"783","09COV1756","09COV1756_21",2021-10-04 20:20:00,32.399875,43.883375,0.738317757009346
"784","09LOW0325","09LOW0325_21",2021-10-04 22:15:00,8.4895875,13.862225,0.612426035502959
"785","09COV1165","09COV1165_21",2021-10-04 22:45:00,21.736625,29.446975,0.738161559888579
"786","09MID2426","09MID2426_21",2021-10-05 16:30:00,8.1614875,17.9224625,0.455377574370709
"787","09COV1418","09COV1418_21",2021-10-05 19:15:00,13.370075,22.14675,0.603703703703704
"788","09DEE2294","09DEE2294_21",2021-10-06 15:05:00,14.92855,26.0429375,0.573228346456693
"789","09LOW0751","09LOW0751_21",2021-10-06 18:00:00,7.3412375,14.7645,0.497222222222222
"790","09SOO1209","09SOO1209_21",2021-10-07 14:30:00,10.7042625,12.4678,0.858552631578947
"791","09DEE2208","09DEE2208_21",2021-10-07 16:20:00,22.6389,33.30215,0.679802955665025
"792","09SOO1283","09SOO1283_21",2021-10-07 16:30:00,17.143225,21.81865,0.785714285714286
"793","09BLA0768","09BLA0768_21",2021-10-07 17:15:00,11.8526125,20.6703,0.573412698412698
"794","09DEE2163","09DEE2163_21",2021-10-07 18:15:00,13.94425,23.049025,0.604982206405694
